# == pyFAI calibration ==
# Distance Sample to Detector: 0.21311058206280517 m
# PONI: 2.037e-01, 1.993e-01 m
# Rotations: -0.005459 0.000134 0.000000 rad
# 
# == Fit2d calibration ==
# Distance Sample-beamCenter: 213.114 mm
# Center: x=1002.134, y=1018.730 pix
# Tilt: 0.313 deg  TiltPlanRot: 1.411 deg
# 
# Detector Perkin detector	 PixelSize= 2.000e-04, 2.000e-04 m
#    Detector has a mask: False 
#    Detector has a dark current: False 
#    detector has a flat field: False 
# 
# Wavelength: 1.675e-11 m
# Mask applied: provided
# Dark current applied: False
# Flat field applied: False
# Polarization factor: None
# Normalization factor: 1.0
# --> data/chi_bkgsub_true/C_Tatania2-41.5-average.chi
#        q_A^-1             I 
  5.887183e-02    2.658730e+00
  8.162970e-02    2.658730e+00
  1.043876e-01    4.348409e-01
  1.271454e-01    2.435520e-01
  1.499033e-01    3.356534e-01
  1.726612e-01    3.953339e-01
  1.954191e-01    1.859902e-01
  2.181769e-01    9.184792e-01
  2.409348e-01    2.042889e+00
  2.636927e-01    9.304192e+00
  2.864505e-01    2.686292e+01
  3.092084e-01    6.612962e+01
  3.319663e-01    7.725083e+01
  3.547242e-01    6.935213e+01
  3.774820e-01    8.725902e+01
  4.002399e-01    8.317632e+01
  4.229978e-01    9.256487e+01
  4.457556e-01    9.581032e+01
  4.685135e-01    4.245673e+01
  4.912714e-01    1.328106e+01
  5.140293e-01    6.681558e+00
  5.367871e-01    4.023784e+00
  5.595450e-01    2.705008e+00
  5.823029e-01    2.961952e+00
  6.050607e-01    3.852195e+00
  6.278186e-01    3.736069e+00
  6.505765e-01    1.760026e+00
  6.733344e-01    0.000000e+00
  6.960922e-01    4.613647e-01
  7.188501e-01    4.613647e-01
  7.416080e-01    4.613647e-01
  7.643658e-01    0.000000e+00
  7.871237e-01    7.844687e-01
  8.098816e-01    1.528759e+00
  8.326395e-01    2.336794e+00
  8.553973e-01    0.000000e+00
  8.781552e-01    0.000000e+00
  9.009131e-01    3.052216e-01
  9.236709e-01    3.052216e-01
  9.464288e-01    3.052216e-01
  9.691867e-01    0.000000e+00
  9.919446e-01    0.000000e+00
  1.014702e+00    0.000000e+00
  1.037460e+00    0.000000e+00
  1.060218e+00    0.000000e+00
  1.082976e+00    0.000000e+00
  1.105734e+00    0.000000e+00
  1.128492e+00    0.000000e+00
  1.151250e+00    0.000000e+00
  1.174008e+00    0.000000e+00
  1.196765e+00    4.040527e-02
  1.219523e+00    4.040527e-02
  1.242281e+00    4.040527e-02
  1.265039e+00    1.008102e+00
  1.287797e+00    1.008102e+00
  1.310555e+00    1.008102e+00
  1.333313e+00    0.000000e+00
  1.356070e+00    0.000000e+00
  1.378828e+00    0.000000e+00
  1.401586e+00    0.000000e+00
  1.424344e+00    0.000000e+00
  1.447102e+00    0.000000e+00
  1.469860e+00    0.000000e+00
  1.492618e+00    0.000000e+00
  1.515376e+00    9.134064e-01
  1.538133e+00    9.134064e-01
  1.560891e+00    7.936080e-01
  1.583649e+00    7.274780e-01
  1.606407e+00    0.000000e+00
  1.629165e+00    2.516022e-01
  1.651923e+00    2.516022e-01
  1.674681e+00    2.516022e-01
  1.697439e+00    2.550049e-01
  1.720196e+00    2.550049e-01
  1.742954e+00    2.550049e-01
  1.765712e+00    0.000000e+00
  1.788470e+00    0.000000e+00
  1.811228e+00    0.000000e+00
  1.833986e+00    0.000000e+00
  1.856744e+00    0.000000e+00
  1.879502e+00    0.000000e+00
  1.902259e+00    0.000000e+00
  1.925017e+00    0.000000e+00
  1.947775e+00    0.000000e+00
  1.970533e+00    0.000000e+00
  1.993291e+00    0.000000e+00
  2.016049e+00    0.000000e+00
  2.038807e+00    0.000000e+00
  2.061564e+00    0.000000e+00
  2.084322e+00    0.000000e+00
  2.107080e+00    0.000000e+00
  2.129838e+00    0.000000e+00
  2.152596e+00    0.000000e+00
  2.175354e+00    0.000000e+00
  2.198112e+00    0.000000e+00
  2.220870e+00    0.000000e+00
  2.243627e+00    0.000000e+00
  2.266385e+00    0.000000e+00
  2.289143e+00    0.000000e+00
  2.311901e+00    0.000000e+00
  2.334659e+00    0.000000e+00
  2.357417e+00    0.000000e+00
  2.380175e+00    0.000000e+00
  2.402933e+00    0.000000e+00
  2.425690e+00    0.000000e+00
  2.448448e+00    0.000000e+00
  2.471206e+00    0.000000e+00
  2.493964e+00    0.000000e+00
  2.516722e+00    0.000000e+00
  2.539480e+00    0.000000e+00
  2.562238e+00    0.000000e+00
  2.584996e+00    0.000000e+00
  2.607753e+00    0.000000e+00
  2.630511e+00    0.000000e+00
  2.653269e+00    0.000000e+00
  2.676027e+00    0.000000e+00
  2.698785e+00    0.000000e+00
  2.721543e+00    0.000000e+00
  2.744301e+00    5.305481e-02
  2.767059e+00    5.305481e-02
  2.789816e+00    5.305481e-02
  2.812574e+00    0.000000e+00
  2.835332e+00    0.000000e+00
  2.858090e+00    0.000000e+00
  2.880848e+00    0.000000e+00
  2.903606e+00    0.000000e+00
  2.926364e+00    0.000000e+00
  2.949121e+00    0.000000e+00
  2.971879e+00    0.000000e+00
  2.994637e+00    0.000000e+00
  3.017395e+00    0.000000e+00
  3.040153e+00    0.000000e+00
  3.062911e+00    0.000000e+00
  3.085669e+00    0.000000e+00
  3.108427e+00    0.000000e+00
  3.131184e+00    0.000000e+00
  3.153942e+00    0.000000e+00
  3.176700e+00    0.000000e+00
  3.199458e+00    1.233383e+00
  3.222216e+00    1.233383e+00
  3.244974e+00    5.992824e-01
  3.267732e+00    3.737640e-01
  3.290490e+00    0.000000e+00
  3.313247e+00    0.000000e+00
  3.336005e+00    0.000000e+00
  3.358763e+00    0.000000e+00
  3.381521e+00    0.000000e+00
  3.404279e+00    0.000000e+00
  3.427037e+00    0.000000e+00
  3.449795e+00    0.000000e+00
  3.472553e+00    0.000000e+00
  3.495310e+00    0.000000e+00
  3.518068e+00    0.000000e+00
  3.540826e+00    0.000000e+00
  3.563584e+00    0.000000e+00
  3.586342e+00    1.688454e+00
  3.609100e+00    1.688454e+00
  3.631858e+00    1.688454e+00
  3.654615e+00    0.000000e+00
  3.677373e+00    0.000000e+00
  3.700131e+00    0.000000e+00
  3.722889e+00    0.000000e+00
  3.745647e+00    0.000000e+00
  3.768405e+00    0.000000e+00
  3.791163e+00    0.000000e+00
  3.813921e+00    0.000000e+00
  3.836678e+00    3.206372e+01
  3.859436e+00    3.206372e+01
  3.882194e+00    3.206372e+01
  3.904952e+00    8.496857e-01
  3.927710e+00    9.210567e-01
  3.950468e+00    1.561218e+00
  3.973226e+00    1.299833e+00
  3.995984e+00    1.209024e+00
  4.018741e+00    0.000000e+00
  4.041499e+00    0.000000e+00
  4.064257e+00    1.110229e-01
  4.087015e+00    1.110229e-01
  4.109773e+00    1.110229e-01
  4.132531e+00    0.000000e+00
  4.155289e+00    8.851236e-01
  4.178047e+00    8.729644e-01
  4.200804e+00    0.000000e+00
  4.223562e+00    0.000000e+00
  4.246320e+00    6.147461e-01
  4.269078e+00    6.147461e-01
  4.291836e+00    6.147461e-01
  4.314594e+00    0.000000e+00
  4.337352e+00    0.000000e+00
  4.360109e+00    2.124268e+00
  4.382867e+00    2.124268e+00
  4.405625e+00    0.000000e+00
  4.428383e+00    9.011078e-02
  4.451141e+00    9.011078e-02
  4.473899e+00    0.000000e+00
  4.496657e+00    0.000000e+00
  4.519415e+00    1.786072e+00
  4.542172e+00    1.792304e+00
  4.564930e+00    1.796223e+00
  4.587688e+00    0.000000e+00
  4.610446e+00    0.000000e+00
  4.633204e+00    0.000000e+00
  4.655962e+00    0.000000e+00
  4.678720e+00    0.000000e+00
  4.701478e+00    5.002441e-01
  4.724235e+00    5.002441e-01
  4.746993e+00    0.000000e+00
  4.769751e+00    0.000000e+00
  4.792509e+00    0.000000e+00
  4.815267e+00    0.000000e+00
  4.838025e+00    0.000000e+00
  4.860783e+00    0.000000e+00
  4.883541e+00    0.000000e+00
  4.906298e+00    5.718613e-01
  4.929056e+00    5.718613e-01
  4.951814e+00    2.807088e+00
  4.974572e+00    2.872597e+00
  4.997330e+00    0.000000e+00
  5.020088e+00    0.000000e+00
  5.042846e+00    1.897583e-01
  5.065603e+00    1.897583e-01
  5.088361e+00    1.897583e-01
  5.111119e+00    0.000000e+00
  5.133877e+00    0.000000e+00
  5.156635e+00    0.000000e+00
  5.179393e+00    0.000000e+00
  5.202151e+00    0.000000e+00
  5.224909e+00    1.619415e-01
  5.247666e+00    1.758622e-01
  5.270424e+00    2.080536e-01
  5.293182e+00    2.080536e-01
  5.315940e+00    0.000000e+00
  5.338698e+00    0.000000e+00
  5.361456e+00    0.000000e+00
  5.384214e+00    0.000000e+00
  5.406972e+00    0.000000e+00
  5.429729e+00    1.418251e+00
  5.452487e+00    1.418251e+00
  5.475245e+00    0.000000e+00
  5.498003e+00    0.000000e+00
  5.520761e+00    0.000000e+00
  5.543519e+00    0.000000e+00
  5.566277e+00    3.549957e-02
  5.589035e+00    3.549957e-02
  5.611792e+00    0.000000e+00
  5.634550e+00    0.000000e+00
  5.657308e+00    0.000000e+00
  5.680066e+00    0.000000e+00
  5.702824e+00    0.000000e+00
  5.725582e+00    0.000000e+00
  5.748340e+00    0.000000e+00
  5.771097e+00    9.521255e-01
  5.793855e+00    9.521255e-01
  5.816613e+00    0.000000e+00
  5.839371e+00    0.000000e+00
  5.862129e+00    0.000000e+00
  5.884887e+00    0.000000e+00
  5.907645e+00    0.000000e+00
  5.930403e+00    0.000000e+00
  5.953160e+00    0.000000e+00
  5.975918e+00    0.000000e+00
  5.998676e+00    0.000000e+00
  6.021434e+00    0.000000e+00
  6.044192e+00    0.000000e+00
  6.066950e+00    5.265503e-01
  6.089708e+00    5.265503e-01
  6.112466e+00    5.265503e-01
  6.135223e+00    0.000000e+00
  6.157981e+00    0.000000e+00
  6.180739e+00    5.067368e-01
  6.203497e+00    5.067368e-01
  6.226255e+00    0.000000e+00
  6.249013e+00    0.000000e+00
  6.271771e+00    0.000000e+00
  6.294529e+00    0.000000e+00
  6.317286e+00    0.000000e+00
  6.340044e+00    0.000000e+00
  6.362802e+00    0.000000e+00
  6.385560e+00    0.000000e+00
  6.408318e+00    0.000000e+00
  6.431076e+00    0.000000e+00
  6.453834e+00    8.066254e-01
  6.476591e+00    8.066254e-01
  6.499349e+00    0.000000e+00
  6.522107e+00    3.646400e+00
  6.544865e+00    2.585121e+00
  6.567623e+00    5.346054e-01
  6.590381e+00    5.331625e-01
  6.613139e+00    0.000000e+00
  6.635897e+00    0.000000e+00
  6.658654e+00    6.451241e-01
  6.681412e+00    7.484594e-01
  6.704170e+00    1.206400e+00
  6.726928e+00    1.204471e+00
  6.749686e+00    1.164208e+00
  6.772444e+00    1.164797e+00
  6.795202e+00    2.089052e+00
  6.817960e+00    1.928764e+00
  6.840717e+00    7.305254e-01
  6.863475e+00    7.286103e-01
  6.886233e+00    1.467003e+00
  6.908991e+00    1.467003e+00
  6.931749e+00    2.377012e+00
  6.954507e+00    2.602272e+00
  6.977265e+00    0.000000e+00
  7.000023e+00    1.590347e-01
  7.022780e+00    7.648920e-01
  7.045538e+00    1.461647e+00
  7.068296e+00    1.461495e+00
  7.091054e+00    7.363052e-01
  7.113812e+00    7.363052e-01
  7.136570e+00    7.363052e-01
  7.159328e+00    4.925537e-01
  7.182086e+00    4.925537e-01
  7.204843e+00    1.264130e+00
  7.227601e+00    1.056491e+00
  7.250359e+00    3.993301e-01
  7.273117e+00    3.993301e-01
  7.295875e+00    0.000000e+00
  7.318633e+00    0.000000e+00
  7.341391e+00    0.000000e+00
  7.364148e+00    0.000000e+00
  7.386906e+00    1.552738e+00
  7.409664e+00    1.646545e+00
  7.432422e+00    1.375146e+00
  7.455180e+00    8.536606e-01
  7.477938e+00    8.536606e-01
  7.500696e+00    1.363855e-01
  7.523454e+00    1.512350e-01
  7.546211e+00    2.077623e-01
  7.568969e+00    2.820270e-01
  7.591727e+00    3.227736e-01
  7.614485e+00    2.193451e-01
  7.637243e+00    7.215787e-01
  7.660001e+00    1.018700e+00
  7.682759e+00    0.000000e+00
  7.705517e+00    1.947861e-01
  7.728274e+00    1.846104e-01
  7.751032e+00    1.553116e-01
  7.773790e+00    6.905751e-01
  7.796548e+00    8.377914e-01
  7.819306e+00    0.000000e+00
  7.842064e+00    0.000000e+00
  7.864822e+00    0.000000e+00
  7.887580e+00    0.000000e+00
  7.910337e+00    0.000000e+00
  7.933095e+00    0.000000e+00
  7.955853e+00    0.000000e+00
  7.978611e+00    8.653336e-01
  8.001369e+00    4.788509e-01
  8.024127e+00    2.694990e-01
  8.046885e+00    2.260336e+01
  8.069642e+00    4.049826e+01
  8.092400e+00    0.000000e+00
  8.115158e+00    0.000000e+00
  8.137916e+00    8.192749e-01
  8.160674e+00    8.192749e-01
  8.183432e+00    0.000000e+00
  8.206190e+00    0.000000e+00
  8.228948e+00    2.162628e-01
  8.251705e+00    2.162628e-01
  8.274463e+00    2.162628e-01
  8.297221e+00    0.000000e+00
  8.319979e+00    0.000000e+00
  8.342737e+00    1.064528e+00
  8.365495e+00    1.876212e+00
  8.388253e+00    3.296958e+00
  8.411011e+00    2.883344e+00
  8.433768e+00    0.000000e+00
  8.456526e+00    0.000000e+00
  8.479284e+00    0.000000e+00
  8.502042e+00    2.208946e+00
  8.524800e+00    2.208946e+00
  8.547558e+00    0.000000e+00
  8.570316e+00    0.000000e+00
  8.593074e+00    1.014922e+00
  8.615831e+00    1.005590e+00
  8.638589e+00    1.000874e+00
  8.661347e+00    0.000000e+00
  8.684105e+00    0.000000e+00
  8.706863e+00    5.787125e-01
  8.729621e+00    5.738096e-01
  8.752379e+00    5.640640e-01
  8.775136e+00    5.259725e-01
  8.797894e+00    5.436695e-01
  8.820652e+00    0.000000e+00
  8.843410e+00    4.987929e-01
  8.866168e+00    8.785162e-01
  8.888926e+00    8.049927e-01
  8.911684e+00    0.000000e+00
  8.934442e+00    0.000000e+00
  8.957199e+00    3.086319e-01
  8.979957e+00    3.053801e-01
  9.002715e+00    7.687610e-02
  9.025473e+00    0.000000e+00
  9.048231e+00    0.000000e+00
  9.070989e+00    0.000000e+00
  9.093747e+00    5.959308e-01
  9.116505e+00    3.330197e-01
  9.139262e+00    4.810881e-01
  9.162020e+00    9.146715e-01
  9.184778e+00    1.643188e+00
  9.207536e+00    0.000000e+00
  9.230294e+00    4.530258e-01
  9.253052e+00    4.373344e-01
  9.275810e+00    2.922363e-01
  9.298568e+00    5.835596e-01
  9.321325e+00    6.537870e-01
  9.344083e+00    0.000000e+00
  9.366841e+00    0.000000e+00
  9.389599e+00    0.000000e+00
  9.412357e+00    0.000000e+00
  9.435115e+00    0.000000e+00
  9.457873e+00    8.126221e-01
  9.480630e+00    8.126221e-01
  9.503388e+00    0.000000e+00
  9.526146e+00    0.000000e+00
  9.548904e+00    5.378418e-01
  9.571662e+00    5.378418e-01
  9.594420e+00    1.014455e+00
  9.617178e+00    5.996341e+01
  9.639936e+00    1.193296e+02
  9.662693e+00    4.702713e-01
  9.685451e+00    4.702632e-01
  9.708209e+00    0.000000e+00
  9.730967e+00    0.000000e+00
  9.753725e+00    7.181460e-01
  9.776483e+00    6.884877e-01
  9.799241e+00    7.107296e-01
  9.821999e+00    8.083437e-01
  9.844756e+00    8.925100e-01
  9.867514e+00    7.457170e-01
  9.890272e+00    5.713902e-01
  9.913030e+00    1.147777e+00
  9.935788e+00    1.378952e+00
  9.958546e+00    1.225187e+00
  9.981304e+00    7.846556e-01
  1.000406e+01    7.893689e-01
  1.002682e+01    8.696814e-01
  1.004958e+01    8.095987e-01
  1.007234e+01    8.032214e-01
  1.009509e+01    8.633641e-01
  1.011785e+01    1.032959e+00
  1.014061e+01    9.115146e-01
  1.016337e+01    8.240391e-01
  1.018612e+01    6.874858e-01
  1.020888e+01    5.771553e-01
  1.023164e+01    2.870124e-01
  1.025440e+01    4.289965e-01
  1.027716e+01    8.936581e-01
  1.029991e+01    7.607222e-01
  1.032267e+01    7.335027e-01
  1.034543e+01    1.211641e+00
  1.036819e+01    1.147748e+00
  1.039095e+01    1.301188e+00
  1.041370e+01    3.838678e+00
  1.043646e+01    1.399757e+00
  1.045922e+01    3.552709e-01
  1.048198e+01    2.008903e-01
  1.050473e+01    3.750750e-01
  1.052749e+01    1.085194e+00
  1.055025e+01    1.654424e+00
  1.057301e+01    1.085717e+00
  1.059577e+01    7.427852e-01
  1.061852e+01    4.285080e-01
  1.064128e+01    4.759537e-01
  1.066404e+01    6.547599e-01
  1.068680e+01    7.395964e-01
  1.070956e+01    4.870236e-01
  1.073231e+01    6.821414e-01
  1.075507e+01    9.012430e-01
  1.077783e+01    9.064560e-01
  1.080059e+01    8.878058e-01
  1.082334e+01    5.461879e-01
  1.084610e+01    3.187751e-01
  1.086886e+01    3.816654e-01
  1.089162e+01    5.474936e-01
  1.091438e+01    5.637333e-01
  1.093713e+01    5.361903e-01
  1.095989e+01    3.334900e-01
  1.098265e+01    2.631393e-01
  1.100541e+01    3.165719e-01
  1.102817e+01    6.018734e-01
  1.105092e+01    7.093915e-01
  1.107368e+01    5.806052e-02
  1.109644e+01    7.916501e-01
  1.111920e+01    6.690767e-01
  1.114196e+01    5.227582e-01
  1.116471e+01    1.201955e+00
  1.118747e+01    2.103894e+00
  1.121023e+01    1.713426e+00
  1.123299e+01    1.535341e+00
  1.125574e+01    5.793493e-01
  1.127850e+01    7.105600e-01
  1.130126e+01    7.120751e-01
  1.132402e+01    5.551457e-01
  1.134678e+01    3.960346e-01
  1.136953e+01    5.538435e-01
  1.139229e+01    4.191326e-01
  1.141505e+01    6.885941e-01
  1.143781e+01    6.744238e-01
  1.146057e+01    9.509662e-01
  1.148332e+01    5.223565e-01
  1.150608e+01    8.451834e-02
  1.152884e+01    1.077881e-01
  1.155160e+01    6.802690e-01
  1.157435e+01    6.341972e-01
  1.159711e+01    4.884105e-01
  1.161987e+01    1.155971e+00
  1.164263e+01    8.128157e-01
  1.166539e+01    7.367494e-01
  1.168814e+01    8.384742e-01
  1.171090e+01    1.099142e+00
  1.173366e+01    9.881322e-01
  1.175642e+01    2.621996e-01
  1.177918e+01    4.899756e-01
  1.180193e+01    7.469540e-01
  1.182469e+01    7.070161e-01
  1.184745e+01    7.143957e-01
  1.187021e+01    1.110884e+00
  1.189296e+01    1.054467e+00
  1.191572e+01    4.616290e-02
  1.193848e+01    0.000000e+00
  1.196124e+01    0.000000e+00
  1.198400e+01    1.914813e-01
  1.200675e+01    1.943100e-01
  1.202951e+01    4.706744e-01
  1.205227e+01    5.390804e-01
  1.207503e+01    3.763524e-01
  1.209779e+01    4.979468e-01
  1.212054e+01    4.889324e-01
  1.214330e+01    1.744342e+00
  1.216606e+01    1.953023e+00
  1.218882e+01    1.167101e+00
  1.221158e+01    1.149382e+00
  1.223433e+01    7.088630e+01
  1.225709e+01    1.635175e+02
  1.227985e+01    1.196676e+00
  1.230261e+01    1.196676e+00
  1.232536e+01    1.999558e-01
  1.234812e+01    2.260501e-01
  1.237088e+01    1.101320e+00
  1.239364e+01    9.102377e-01
  1.241640e+01    1.708254e+00
  1.243915e+01    1.733769e+00
  1.246191e+01    1.543533e+00
  1.248467e+01    8.028551e-01
  1.250743e+01    1.105080e+00
  1.253019e+01    5.471241e-01
  1.255294e+01    6.427675e-01
  1.257570e+01    8.142642e-01
  1.259846e+01    1.065561e+00
  1.262122e+01    8.909394e-01
  1.264397e+01    1.996120e+00
  1.266673e+01    5.765122e+00
  1.268949e+01    1.680881e+00
  1.271225e+01    6.188169e-01
  1.273501e+01    7.731120e-01
  1.275776e+01    0.000000e+00
  1.278052e+01    2.166341e-01
  1.280328e+01    1.198952e+00
  1.282604e+01    8.604432e-01
  1.284880e+01    3.798408e-01
  1.287155e+01    5.982308e-01
  1.289431e+01    3.142465e-01
  1.291707e+01    4.181035e-01
  1.293983e+01    5.495296e-01
  1.296258e+01    1.367936e+00
  1.298534e+01    9.737353e-01
  1.300810e+01    7.620907e-01
  1.303086e+01    6.137513e-01
  1.305362e+01    8.218632e-01
  1.307637e+01    6.505704e-01
  1.309913e+01    5.068085e-01
  1.312189e+01    1.181461e+00
  1.314465e+01    2.045750e+00
  1.316741e+01    1.329927e+00
  1.319016e+01    8.614205e-01
  1.321292e+01    2.985505e+01
  1.323568e+01    7.157090e+00
  1.325844e+01    6.298107e-01
  1.328119e+01    6.716008e-01
  1.330395e+01    4.456695e+00
  1.332671e+01    4.449119e+00
  1.334947e+01    4.354476e+00
  1.337223e+01    5.436676e+00
  1.339498e+01    1.406167e+00
  1.341774e+01    2.401250e-01
  1.344050e+01    6.265225e-01
  1.346326e+01    7.489038e-01
  1.348602e+01    3.293438e-01
  1.350877e+01    3.950362e-01
  1.353153e+01    1.046282e+00
  1.355429e+01    1.222763e+00
  1.357705e+01    9.958649e-01
  1.359981e+01    8.179383e-01
  1.362256e+01    8.465134e-01
  1.364532e+01    8.311249e-01
  1.366808e+01    1.087685e+00
  1.369084e+01    2.808995e+00
  1.371359e+01    1.738037e+00
  1.373635e+01    1.295006e+00
  1.375911e+01    1.835853e+00
  1.378187e+01    6.096376e-01
  1.380463e+01    8.078671e-01
  1.382738e+01    7.534521e-01
  1.385014e+01    7.071324e-01
  1.387290e+01    7.676269e-01
  1.389566e+01    8.916669e-01
  1.391842e+01    7.276539e-01
  1.394117e+01    5.748737e-01
  1.396393e+01    1.046428e+00
  1.398669e+01    7.522960e-01
  1.400945e+01    3.643511e+00
  1.403220e+01    2.965471e+00
  1.405496e+01    1.857380e+00
  1.407772e+01    9.426641e-01
  1.410048e+01    8.263460e-01
  1.412324e+01    5.975629e-01
  1.414599e+01    3.120624e-01
  1.416875e+01    6.198763e-01
  1.419151e+01    1.479216e+00
  1.421427e+01    2.096267e+00
  1.423703e+01    2.045452e+00
  1.425978e+01    6.074049e-01
  1.428254e+01    6.915106e-01
  1.430530e+01    6.489526e-01
  1.432806e+01    3.796832e-01
  1.435081e+01    5.612355e+00
  1.437357e+01    6.358467e+00
  1.439633e+01    9.768170e-01
  1.441909e+01    6.304266e-01
  1.444185e+01    6.299021e-01
  1.446460e+01    6.169460e-01
  1.448736e+01    5.231056e-01
  1.451012e+01    1.560509e-01
  1.453288e+01    1.849352e+00
  1.455564e+01    1.137825e+00
  1.457839e+01    3.783175e-01
  1.460115e+01    5.030067e-01
  1.462391e+01    8.330465e-01
  1.464667e+01    1.510936e+00
  1.466943e+01    1.094379e+00
  1.469218e+01    9.534715e-01
  1.471494e+01    7.007337e-01
  1.473770e+01    6.537481e-01
  1.476046e+01    4.583015e-01
  1.478321e+01    1.014227e+00
  1.480597e+01    1.229629e+00
  1.482873e+01    2.421038e+00
  1.485149e+01    2.031066e+00
  1.487425e+01    1.141918e+00
  1.489700e+01    2.904140e-01
  1.491976e+01    2.958254e-01
  1.494252e+01    3.224178e-01
  1.496528e+01    9.835379e-01
  1.498804e+01    1.364397e+00
  1.501079e+01    9.265639e-01
  1.503355e+01    5.910102e-01
  1.505631e+01    7.678532e-01
  1.507907e+01    9.788446e-01
  1.510182e+01    9.732206e-01
  1.512458e+01    7.266341e-01
  1.514734e+01    7.201543e-01
  1.517010e+01    8.133612e-01
  1.519286e+01    1.063342e+00
  1.521561e+01    8.839259e-01
  1.523837e+01    5.477983e-01
  1.526113e+01    6.646883e-01
  1.528389e+01    6.957214e-01
  1.530665e+01    4.832654e-01
  1.532940e+01    4.739399e-01
  1.535216e+01    6.211730e-01
  1.537492e+01    5.127912e-01
  1.539768e+01    7.590808e-01
  1.542043e+01    5.398011e-01
  1.544319e+01    3.943656e-01
  1.546595e+01    3.196291e-01
  1.548871e+01    2.038463e-01
  1.551147e+01    9.755915e-01
  1.553422e+01    1.043867e+00
  1.555698e+01    9.345657e-01
  1.557974e+01    3.922246e-01
  1.560250e+01    6.564804e-01
  1.562526e+01    6.523954e-01
  1.564801e+01    5.645253e-01
  1.567077e+01    8.748285e-01
  1.569353e+01    1.306359e+00
  1.571629e+01    6.860296e-01
  1.573905e+01    8.481434e-01
  1.576180e+01    1.359695e+00
  1.578456e+01    1.170064e+00
  1.580732e+01    1.606920e+00
  1.583008e+01    5.817304e-01
  1.585283e+01    4.421140e-01
  1.587559e+01    6.449676e-01
  1.589835e+01    7.088808e-01
  1.592111e+01    1.306563e+00
  1.594387e+01    1.486212e+00
  1.596662e+01    7.705637e-01
  1.598938e+01    6.893466e-01
  1.601214e+01    1.450682e+00
  1.603490e+01    1.453130e+00
  1.605766e+01    1.534880e+00
  1.608041e+01    6.798149e-01
  1.610317e+01    7.684108e-01
  1.612593e+01    1.614814e+00
  1.614869e+01    3.639869e+00
  1.617144e+01    2.563737e+00
  1.619420e+01    3.883450e-01
  1.621696e+01    6.686673e-01
  1.623972e+01    6.257625e-01
  1.626248e+01    6.902269e-01
  1.628523e+01    7.977380e-01
  1.630799e+01    1.700360e+00
  1.633075e+01    1.572183e+00
  1.635351e+01    1.303148e+00
  1.637627e+01    7.472224e-01
  1.639902e+01    2.676265e-01
  1.642178e+01    5.767203e-01
  1.644454e+01    6.681378e-01
  1.646730e+01    7.817886e-01
  1.649005e+01    7.495223e-01
  1.651281e+01    1.906710e+00
  1.653557e+01    1.249360e+00
  1.655833e+01    8.501281e-01
  1.658109e+01    6.821920e-01
  1.660384e+01    4.594170e-01
  1.662660e+01    8.033537e-01
  1.664936e+01    4.580392e-01
  1.667212e+01    5.817874e-01
  1.669488e+01    6.838018e-01
  1.671763e+01    6.568446e-01
  1.674039e+01    7.131727e-01
  1.676315e+01    5.657704e-01
  1.678591e+01    1.135508e+00
  1.680867e+01    7.231904e-01
  1.683142e+01    6.516124e-01
  1.685418e+01    6.464684e-01
  1.687694e+01    6.511827e-01
  1.689970e+01    1.596432e+00
  1.692245e+01    1.319099e+00
  1.694521e+01    5.979964e-01
  1.696797e+01    1.440760e+00
  1.699073e+01    1.044963e+00
  1.701349e+01    6.040882e-01
  1.703624e+01    8.501393e-01
  1.705900e+01    1.038906e+00
  1.708176e+01    1.309801e+00
  1.710452e+01    1.064475e+00
  1.712728e+01    1.230688e+00
  1.715003e+01    1.569896e+00
  1.717279e+01    1.448284e+00
  1.719555e+01    9.428868e-01
  1.721831e+01    9.405658e-01
  1.724106e+01    2.445854e+00
  1.726382e+01    1.100212e+00
  1.728658e+01    8.467960e-01
  1.730934e+01    1.102549e+00
  1.733210e+01    1.216479e+00
  1.735485e+01    1.132477e+00
  1.737761e+01    6.559523e-01
  1.740037e+01    1.895477e+00
  1.742313e+01    7.951836e-01
  1.744589e+01    4.396542e-01
  1.746864e+01    8.633117e-01
  1.749140e+01    1.544057e+00
  1.751416e+01    7.707524e-01
  1.753692e+01    6.233111e-01
  1.755967e+01    1.133731e+00
  1.758243e+01    2.290751e+00
  1.760519e+01    2.811263e+00
  1.762795e+01    9.803923e-01
  1.765071e+01    4.332117e-01
  1.767346e+01    6.872994e-01
  1.769622e+01    6.070951e-01
  1.771898e+01    1.042146e+00
  1.774174e+01    9.556065e-01
  1.776450e+01    7.363306e-01
  1.778725e+01    6.646962e-01
  1.781001e+01    6.746543e+00
  1.783277e+01    1.253662e+00
  1.785553e+01    3.510643e-01
  1.787828e+01    6.072013e-01
  1.790104e+01    7.773779e-01
  1.792380e+01    1.292755e+00
  1.794656e+01    4.774388e+00
  1.796932e+01    1.488891e+00
  1.799207e+01    7.280026e-01
  1.801483e+01    1.548802e+00
  1.803759e+01    1.493490e+00
  1.806035e+01    1.019346e+00
  1.808311e+01    3.277273e-01
  1.810586e+01    1.372743e+00
  1.812862e+01    2.334958e+00
  1.815138e+01    9.726061e-01
  1.817414e+01    5.359036e-01
  1.819690e+01    5.832584e-01
  1.821965e+01    8.464313e-01
  1.824241e+01    5.470800e-01
  1.826517e+01    1.350505e+00
  1.828793e+01    1.922711e+00
  1.831068e+01    8.829494e-01
  1.833344e+01    2.456631e+00
  1.835620e+01    2.606420e+00
  1.837896e+01    8.991301e-01
  1.840172e+01    1.396608e+00
  1.842447e+01    9.996135e-01
  1.844723e+01    1.532738e+00
  1.846999e+01    7.509087e-01
  1.849275e+01    9.044231e-01
  1.851551e+01    1.925708e+00
  1.853826e+01    1.284281e+00
  1.856102e+01    1.725008e+00
  1.858378e+01    1.744741e+00
  1.860654e+01    2.913538e+00
  1.862929e+01    7.917200e-01
  1.865205e+01    2.907037e+00
  1.867481e+01    1.144207e+00
  1.869757e+01    1.129343e+00
  1.872033e+01    1.007984e+00
  1.874308e+01    1.384054e+00
  1.876584e+01    1.046322e+00
  1.878860e+01    8.110470e-01
  1.881136e+01    1.176730e+00
  1.883412e+01    9.655598e-01
  1.885687e+01    1.218744e+00
  1.887963e+01    9.650305e-01
  1.890239e+01    8.997536e-01
  1.892515e+01    1.225432e+00
  1.894790e+01    6.089190e-01
  1.897066e+01    7.351170e-01
  1.899342e+01    1.037101e+00
  1.901618e+01    6.228284e-01
  1.903894e+01    9.336396e-01
  1.906169e+01    1.590743e+00
  1.908445e+01    1.760378e+00
  1.910721e+01    1.579929e+00
  1.912997e+01    1.492800e+00
  1.915273e+01    5.952370e-01
  1.917548e+01    8.885958e-01
  1.919824e+01    5.783629e-01
  1.922100e+01    7.466371e-01
  1.924376e+01    7.327184e-01
  1.926652e+01    1.439123e+00
  1.928927e+01    1.059017e+01
  1.931203e+01    1.622231e+01
  1.933479e+01    1.136980e+00
  1.935755e+01    8.547693e-01
  1.938030e+01    1.027432e+00
  1.940306e+01    7.748016e-01
  1.942582e+01    6.933528e-01
  1.944858e+01    5.452921e-01
  1.947134e+01    7.574659e-01
  1.949409e+01    8.481586e-01
  1.951685e+01    8.442112e-01
  1.953961e+01    1.005987e+00
  1.956237e+01    2.221653e+00
  1.958513e+01    1.383825e+00
  1.960788e+01    1.038698e+00
  1.963064e+01    1.567369e+00
  1.965340e+01    1.229189e+00
  1.967616e+01    6.840486e-01
  1.969891e+01    1.926212e+00
  1.972167e+01    6.771978e-01
  1.974443e+01    7.039367e-01
  1.976719e+01    8.228731e-01
  1.978995e+01    5.411356e-01
  1.981270e+01    1.274963e+00
  1.983546e+01    8.642266e-01
  1.985822e+01    2.155680e+00
  1.988098e+01    1.967014e+00
  1.990374e+01    1.964364e+00
  1.992649e+01    2.611101e+00
  1.994925e+01    2.037756e+00
  1.997201e+01    6.826857e+00
  1.999477e+01    1.219282e+01
  2.001752e+01    1.185157e+00
  2.004028e+01    1.004714e+00
  2.006304e+01    5.941624e-01
  2.008580e+01    9.038550e-01
  2.010856e+01    1.124427e+00
  2.013131e+01    1.232891e+00
  2.015407e+01    1.133640e+00
  2.017683e+01    8.069246e-01
  2.019959e+01    9.561445e-01
  2.022235e+01    8.651527e-01
  2.024510e+01    8.017406e-01
  2.026786e+01    1.087345e+00
  2.029062e+01    9.729133e-01
  2.031338e+01    7.730358e-01
  2.033614e+01    9.088942e-01
  2.035889e+01    2.798820e-01
  2.038165e+01    1.100405e+00
  2.040441e+01    9.478768e-01
  2.042717e+01    7.391816e-01
  2.044992e+01    1.494807e+00
  2.047268e+01    1.274223e+00
  2.049544e+01    1.995148e+00
  2.051820e+01    2.212233e+00
  2.054096e+01    3.205917e+00
  2.056371e+01    3.152259e+00
  2.058647e+01    5.255171e-01
  2.060923e+01    2.837498e+00
  2.063199e+01    1.402213e+00
  2.065475e+01    4.175931e-01
  2.067750e+01    2.066537e-01
  2.070026e+01    1.605404e+00
  2.072302e+01    1.026178e+00
  2.074578e+01    1.174701e+00
  2.076853e+01    5.356063e-01
  2.079129e+01    2.008802e+00
  2.081405e+01    1.080801e+00
  2.083681e+01    1.483036e+00
  2.085957e+01    8.661232e-01
  2.088232e+01    1.073576e+01
  2.090508e+01    5.954387e+00
  2.092784e+01    7.058397e-01
  2.095060e+01    6.025261e-01
  2.097336e+01    1.221811e+00
  2.099611e+01    3.291658e+00
  2.101887e+01    1.451769e+00
  2.104163e+01    3.453218e+00
  2.106439e+01    4.530697e+00
  2.108714e+01    9.034764e-01
  2.110990e+01    9.698782e-01
  2.113266e+01    3.166378e-01
  2.115542e+01    1.176745e+00
  2.117818e+01    1.126948e+00
  2.120093e+01    1.955550e+00
  2.122369e+01    8.364720e-01
  2.124645e+01    6.874810e-01
  2.126921e+01    1.049193e+00
  2.129197e+01    9.678079e+00
  2.131472e+01    2.477799e+01
  2.133748e+01    1.659436e+01
  2.136024e+01    1.790683e+00
  2.138300e+01    1.036174e+00
  2.140575e+01    1.467861e+00
  2.142851e+01    6.474658e-01
  2.145127e+01    5.893123e-01
  2.147403e+01    6.066262e-01
  2.149679e+01    5.891833e-01
  2.151954e+01    5.462022e-01
  2.154230e+01    8.223641e-01
  2.156506e+01    8.308322e-01
  2.158782e+01    7.785324e-01
  2.161058e+01    5.237596e+00
  2.163333e+01    6.115647e+00
  2.165609e+01    4.887458e-01
  2.167885e+01    4.013225e-01
  2.170161e+01    8.144884e-01
  2.172437e+01    1.463977e+00
  2.174712e+01    9.012155e-01
  2.176988e+01    5.889235e-01
  2.179264e+01    9.739255e-01
  2.181540e+01    8.031489e-01
  2.183815e+01    6.511025e-01
  2.186091e+01    7.686269e-01
  2.188367e+01    4.831077e-01
  2.190643e+01    6.622738e-01
  2.192919e+01    1.698377e+00
  2.195194e+01    1.214484e+00
  2.197470e+01    1.643343e+00
  2.199746e+01    9.265849e-01
  2.202022e+01    1.112891e+00
  2.204298e+01    1.041692e+00
  2.206573e+01    3.015313e+00
  2.208849e+01    1.122212e+00
  2.211125e+01    9.537019e-01
  2.213401e+01    8.534231e-01
  2.215676e+01    6.822841e-01
  2.217952e+01    3.379943e-01
  2.220228e+01    8.587024e-01
  2.222504e+01    1.047485e+00
  2.224780e+01    9.913171e-01
  2.227055e+01    7.748702e-01
  2.229331e+01    6.300024e-01
  2.231607e+01    5.169872e-01
  2.233883e+01    6.881238e-01
  2.236159e+01    7.695604e-01
  2.238434e+01    9.678491e-01
  2.240710e+01    1.645453e+00
  2.242986e+01    9.754761e-01
  2.245262e+01    1.340623e+00
  2.247537e+01    1.012831e+00
  2.249813e+01    9.544964e-01
  2.252089e+01    1.236780e+00
  2.254365e+01    7.291081e-01
  2.256641e+01    4.252012e-01
  2.258916e+01    1.694545e+00
  2.261192e+01    1.347525e+00
  2.263468e+01    2.308064e+00
  2.265744e+01    1.256274e+00
  2.268020e+01    9.646923e-01
  2.270295e+01    1.229094e+00
  2.272571e+01    1.178949e+00
  2.274847e+01    1.082538e+00
  2.277123e+01    8.938508e-01
  2.279399e+01    1.691502e+00
  2.281674e+01    1.189180e+00
  2.283950e+01    5.395225e-01
  2.286226e+01    1.127425e+00
  2.288502e+01    1.126292e+00
  2.290777e+01    7.887436e-01
  2.293053e+01    1.176050e+00
  2.295329e+01    1.149864e+00
  2.297605e+01    1.079204e+00
  2.299881e+01    1.322075e+00
  2.302156e+01    1.342373e+00
  2.304432e+01    7.656024e-01
  2.306708e+01    5.990950e-01
  2.308984e+01    7.243211e-01
  2.311260e+01    9.167318e-01
  2.313535e+01    1.269112e+00
  2.315811e+01    2.136670e+00
  2.318087e+01    1.469824e+00
  2.320363e+01    1.355057e+00
  2.322638e+01    1.227468e+00
  2.324914e+01    1.396219e+00
  2.327190e+01    1.258534e+00
  2.329466e+01    1.496176e+00
  2.331742e+01    8.762982e-01
  2.334017e+01    8.781657e-01
  2.336293e+01    1.101006e+00
  2.338569e+01    1.308242e+00
  2.340845e+01    1.379814e+00
  2.343121e+01    6.982575e-01
  2.345396e+01    8.009706e-01
  2.347672e+01    1.003297e+00
  2.349948e+01    1.258034e+00
  2.352224e+01    2.297957e+00
  2.354499e+01    2.039894e+00
  2.356775e+01    1.092228e+00
  2.359051e+01    1.053650e+00
  2.361327e+01    8.347602e-01
  2.363603e+01    1.319513e+00
  2.365878e+01    8.870376e-01
  2.368154e+01    6.528048e-01
  2.370430e+01    7.278541e-01
  2.372706e+01    6.700123e-01
  2.374982e+01    6.731596e-01
  2.377257e+01    8.011134e-01
  2.379533e+01    1.025602e+00
  2.381809e+01    7.936188e-01
  2.384085e+01    6.916845e-01
  2.386361e+01    1.027115e+00
  2.388636e+01    1.211366e+00
  2.390912e+01    9.257863e-01
  2.393188e+01    6.449007e-01
  2.395464e+01    1.338636e+00
  2.397739e+01    1.301018e+00
  2.400015e+01    7.649585e-01
  2.402291e+01    9.033167e-01
  2.404567e+01    9.207522e-01
  2.406843e+01    1.470527e+00
  2.409118e+01    8.496548e-01
  2.411394e+01    7.975053e-01
  2.413670e+01    5.677915e+00
  2.415946e+01    1.629984e+01
  2.418222e+01    6.366909e-01
  2.420497e+01    8.755352e-01
  2.422773e+01    1.159353e+00
  2.425049e+01    8.666468e-01
  2.427325e+01    8.255271e-01
  2.429600e+01    1.039392e+00
  2.431876e+01    1.236694e+00
  2.434152e+01    8.639573e-01
  2.436428e+01    1.120716e+00
  2.438704e+01    1.016084e+00
  2.440979e+01    7.366686e-01
  2.443255e+01    1.242018e+00
  2.445531e+01    9.090135e-01
  2.447807e+01    6.503881e-01
  2.450083e+01    1.063108e+00
  2.452358e+01    8.133515e-01
  2.454634e+01    9.756548e-01
  2.456910e+01    1.116797e+00
  2.459186e+01    1.218660e+00
  2.461461e+01    6.635806e-01
  2.463737e+01    7.056462e-01
  2.466013e+01    1.230346e+00
  2.468289e+01    8.064919e-01
  2.470565e+01    7.279322e-01
  2.472840e+01    5.676456e-01
  2.475116e+01    7.141181e-01
  2.477392e+01    9.212190e-01
  2.479668e+01    1.063818e+00
  2.481944e+01    9.742640e-01
  2.484219e+01    8.837828e-01
  2.486495e+01    8.004754e-01
  2.488771e+01    5.895537e-01
  2.491047e+01    6.340823e-01
  2.493323e+01    9.039015e-01
  2.495598e+01    8.664036e-01
  2.497874e+01    7.617522e-01
  2.500150e+01    7.796129e-01
  2.502426e+01    7.994592e-01
  2.504701e+01    7.309215e-01
  2.506977e+01    7.282979e-01
  2.509253e+01    1.366800e+00
  2.511529e+01    8.657750e-01
  2.513805e+01    6.618521e-01
  2.516080e+01    6.349640e-01
  2.518356e+01    8.275740e-01
  2.520632e+01    1.179684e+00
  2.522908e+01    1.222806e+00
  2.525184e+01    1.757765e+00
  2.527459e+01    9.274441e-01
  2.529735e+01    6.941403e-01
  2.532011e+01    7.813041e-01
  2.534287e+01    9.675053e-01
  2.536562e+01    1.693782e+00
  2.538838e+01    8.943927e-01
  2.541114e+01    8.786569e-01
  2.543390e+01    9.126229e-01
  2.545666e+01    1.618422e+00
  2.547941e+01    1.554927e+00
  2.550217e+01    1.362198e+00
  2.552493e+01    6.121838e-01
  2.554769e+01    9.351690e-01
  2.557045e+01    8.969043e-01
  2.559320e+01    1.263916e+00
  2.561596e+01    2.260144e+00
  2.563872e+01    9.817128e-01
  2.566148e+01    6.340092e-01
  2.568423e+01    8.370438e-01
  2.570699e+01    9.124951e-01
  2.572975e+01    1.102424e+00
  2.575251e+01    1.100251e+00
  2.577527e+01    1.030825e+00
  2.579802e+01    1.131836e+00
  2.582078e+01    8.409165e-01
  2.584354e+01    9.357836e-01
  2.586630e+01    9.764051e-01
  2.588906e+01    6.264212e-01
  2.591181e+01    9.380515e-01
  2.593457e+01    6.786622e-01
  2.595733e+01    8.477892e-01
  2.598009e+01    6.401976e-01
  2.600284e+01    1.105321e+00
  2.602560e+01    9.419293e-01
  2.604836e+01    6.230622e-01
  2.607112e+01    7.307130e-01
  2.609388e+01    9.945428e-01
  2.611663e+01    1.283096e+00
  2.613939e+01    7.280462e-01
  2.616215e+01    7.717888e-01
  2.618491e+01    6.930261e-01
  2.620767e+01    1.065775e+00
  2.623042e+01    1.149818e+00
  2.625318e+01    6.720756e-01
  2.627594e+01    5.978758e-01
  2.629870e+01    8.453130e-01
  2.632146e+01    6.394739e-01
  2.634421e+01    7.964967e-01
  2.636697e+01    8.903862e-01
  2.638973e+01    1.071314e+00
  2.641249e+01    1.189529e+00
  2.643524e+01    5.603116e-01
  2.645800e+01    6.150235e-01
  2.648076e+01    5.895991e-01
  2.650352e+01    7.450082e-01
  2.652628e+01    8.922758e-01
  2.654903e+01    1.014795e+00
  2.657179e+01    1.081821e+00
  2.659455e+01    8.187528e-01
  2.661731e+01    6.641603e-01
  2.664007e+01    7.987049e-01
  2.666282e+01    1.113824e+00
  2.668558e+01    8.193685e-01
  2.670834e+01    6.783167e-01
  2.673110e+01    9.950542e-01
  2.675385e+01    6.844885e-01
  2.677661e+01    9.733846e-01
  2.679937e+01    8.463169e-01
  2.682213e+01    6.839819e-01
  2.684489e+01    9.924857e-01
  2.686764e+01    6.978282e-01
  2.689040e+01    1.002829e+00
  2.691316e+01    1.001267e+00
  2.693592e+01    8.194582e-01
  2.695868e+01    8.965924e-01
  2.698143e+01    6.461555e-01
  2.700419e+01    8.105948e-01
  2.702695e+01    1.023541e+00
  2.704971e+01    8.736019e-01
  2.707246e+01    7.551783e-01
  2.709522e+01    9.117414e-01
  2.711798e+01    1.040877e+00
  2.714074e+01    8.308627e-01
  2.716350e+01    5.583891e-01
  2.718625e+01    9.330657e-01
  2.720901e+01    7.758712e-01
  2.723177e+01    7.732065e-01
  2.725453e+01    8.931620e-01
  2.727729e+01    1.141648e+00
  2.730004e+01    8.382270e-01
  2.732280e+01    9.441802e-01
  2.734556e+01    9.357002e-01
  2.736832e+01    7.321513e-01
  2.739108e+01    8.888103e-01
  2.741383e+01    7.820203e-01
  2.743659e+01    1.087854e+00
  2.745935e+01    8.377423e-01
  2.748211e+01    1.016696e+00
  2.750486e+01    8.838600e-01
  2.752762e+01    7.933019e-01
  2.755038e+01    7.499851e-01
  2.757314e+01    9.990014e-01
  2.759590e+01    7.774050e-01
  2.761865e+01    7.465721e-01
  2.764141e+01    9.795545e-01
  2.766417e+01    7.874117e-01
  2.768693e+01    8.414841e-01
  2.770969e+01    7.004086e-01
  2.773244e+01    9.245041e-01
  2.775520e+01    7.412847e-01
  2.777796e+01    9.151863e-01
  2.780072e+01    7.451187e-01
  2.782347e+01    1.060211e+00
  2.784623e+01    6.626196e-01
  2.786899e+01    7.981920e-01
  2.789175e+01    9.396456e-01
  2.791451e+01    8.911796e-01
  2.793726e+01    1.005399e+00
  2.796002e+01    9.894389e-01
  2.798278e+01    1.190849e+00
  2.800554e+01    9.911918e-01
  2.802830e+01    1.006872e+00
  2.805105e+01    9.826403e-01
  2.807381e+01    1.023130e+00
  2.809657e+01    7.255057e-01
  2.811933e+01    1.139777e+00
  2.814208e+01    9.607830e-01
  2.816484e+01    7.561426e-01
  2.818760e+01    7.386777e-01
  2.821036e+01    9.654999e-01
  2.823312e+01    9.448592e-01
  2.825587e+01    8.849984e-01
  2.827863e+01    8.762477e-01
  2.830139e+01    8.005616e-01
  2.832415e+01    8.279775e-01
  2.834691e+01    8.481048e-01
  2.836966e+01    8.081747e-01
  2.839242e+01    5.997182e-01
  2.841518e+01    8.458214e-01
  2.843794e+01    1.027753e+00
  2.846070e+01    7.804967e-01
  2.848345e+01    8.342457e-01
  2.850621e+01    8.792329e-01
  2.852897e+01    6.778142e-01
  2.855173e+01    7.205898e-01
  2.857448e+01    7.064109e-01
  2.859724e+01    7.713793e-01
  2.862000e+01    8.026065e-01
  2.864276e+01    7.937419e-01
  2.866552e+01    9.475598e-01
  2.868827e+01    7.406476e-01
  2.871103e+01    8.427579e-01
  2.873379e+01    7.749975e-01
  2.875655e+01    9.012771e-01
  2.877931e+01    5.540879e-01
  2.880206e+01    7.231389e-01
  2.882482e+01    8.029045e-01
  2.884758e+01    7.107543e-01
  2.887034e+01    6.192071e-01
  2.889309e+01    6.224131e-01
  2.891585e+01    1.122309e+00
  2.893861e+01    9.502264e-01
  2.896137e+01    8.807326e-01
  2.898413e+01    6.839210e-01
  2.900688e+01    7.232901e-01
  2.902964e+01    8.493698e-01
  2.905240e+01    7.582881e-01
  2.907516e+01    7.339079e-01
  2.909792e+01    8.346680e-01
  2.912067e+01    8.732530e-01
  2.914343e+01    9.846011e-01
  2.916619e+01    6.852569e-01
  2.918895e+01    6.143077e-01
  2.921170e+01    9.429128e-01
  2.923446e+01    8.425242e-01
  2.925722e+01    8.941800e-01
  2.927998e+01    1.180755e+00
  2.930274e+01    8.983812e-01
  2.932549e+01    9.216671e-01
  2.934825e+01    8.273592e-01
  2.937101e+01    7.745612e-01
  2.939377e+01    9.885601e-01
  2.941653e+01    1.084746e+00
  2.943928e+01    1.211736e+00
  2.946204e+01    1.165487e+00
  2.948480e+01    1.029862e+00
  2.950756e+01    9.425923e-01
  2.953031e+01    8.787671e-01
  2.955307e+01    1.045008e+00
  2.957583e+01    9.248724e-01
  2.959859e+01    9.869167e-01
  2.962135e+01    1.012166e+00
  2.964410e+01    1.051220e+00
  2.966686e+01    1.004547e+00
  2.968962e+01    1.086340e+00
  2.971238e+01    1.220597e+00
  2.973514e+01    1.094217e+00
  2.975789e+01    9.508447e-01
  2.978065e+01    8.744024e-01
  2.980341e+01    1.032109e+00
  2.982617e+01    9.878799e-01
  2.984893e+01    8.191087e-01
  2.987168e+01    8.724788e-01
  2.989444e+01    1.003051e+00
  2.991720e+01    8.128216e-01
  2.993996e+01    9.624773e-01
  2.996271e+01    1.118022e+00
  2.998547e+01    9.676837e-01
  3.000823e+01    8.435372e-01
  3.003099e+01    9.223915e-01
  3.005375e+01    7.789618e-01
  3.007650e+01    8.994594e-01
  3.009926e+01    9.533108e-01
  3.012202e+01    7.942216e-01
  3.014478e+01    7.701086e-01
  3.016754e+01    9.628114e-01
  3.019029e+01    7.910836e-01
  3.021305e+01    8.395011e-01
  3.023581e+01    7.049585e-01
  3.025857e+01    7.478214e-01
  3.028132e+01    8.879212e-01
  3.030408e+01    8.242447e-01
  3.032684e+01    8.781726e-01
  3.034960e+01    7.578163e-01
  3.037236e+01    7.617531e-01
  3.039511e+01    8.040561e-01
  3.041787e+01    6.885456e-01
  3.044063e+01    7.845511e-01
  3.046339e+01    6.251942e-01
  3.048615e+01    6.542937e-01
  3.050890e+01    8.032625e-01
  3.053166e+01    8.583807e-01
  3.055442e+01    6.847883e-01
  3.057718e+01    7.052331e-01
  3.059993e+01    7.518045e-01
  3.062269e+01    6.497411e-01
  3.064545e+01    6.914228e-01
  3.066821e+01    6.454116e-01
  3.069097e+01    7.194000e-01
  3.071372e+01    7.201946e-01
  3.073648e+01    7.842277e-01
  3.075924e+01    8.146566e-01
  3.078200e+01    8.830950e-01
  3.080476e+01    6.148905e-01
  3.082751e+01    6.953363e-01
  3.085027e+01    6.125857e-01
  3.087303e+01    6.960456e-01
  3.089579e+01    8.228006e-01
  3.091855e+01    5.843236e-01
  3.094130e+01    6.736239e-01
  3.096406e+01    8.206999e-01
  3.098682e+01    9.313126e-01
  3.100958e+01    7.994598e-01
  3.103233e+01    6.423578e-01
  3.105509e+01    6.645385e-01
  3.107785e+01    7.549835e-01
  3.110061e+01    8.711668e-01
  3.112337e+01    6.663278e-01
  3.114612e+01    9.000918e-01
  3.116888e+01    7.487580e-01
  3.119164e+01    7.587615e-01
  3.121440e+01    7.756683e-01
  3.123716e+01    6.190607e-01
  3.125991e+01    7.684511e-01
  3.128267e+01    1.070175e+00
  3.130543e+01    4.427634e+00
  3.132819e+01    7.633134e-01
  3.135094e+01    8.328017e-01
  3.137370e+01    1.096684e+00
  3.139646e+01    8.762171e-01
  3.141922e+01    7.936649e-01
  3.144198e+01    7.679426e-01
  3.146473e+01    7.739444e-01
  3.148749e+01    5.460717e-01
  3.151025e+01    8.010266e-01
  3.153301e+01    8.400688e-01
  3.155577e+01    1.008316e+00
  3.157852e+01    1.141431e+00
  3.160128e+01    7.240787e-01
  3.162404e+01    8.083117e-01
  3.164680e+01    8.708812e-01
  3.166955e+01    6.378174e-01
  3.169231e+01    7.243530e-01
  3.171507e+01    6.727923e-01
  3.173783e+01    6.387460e-01
  3.176059e+01    6.629372e-01
  3.178334e+01    5.386420e-01
  3.180610e+01    7.009546e-01
  3.182886e+01    6.666981e-01
  3.185162e+01    7.605549e-01
  3.187438e+01    5.794976e-01
  3.189713e+01    7.924414e-01
  3.191989e+01    4.566099e-01
  3.194265e+01    6.466011e-01
  3.196541e+01    8.408005e-01
  3.198817e+01    6.545691e-01
  3.201092e+01    8.184680e-01
  3.203368e+01    9.266151e-01
  3.205644e+01    7.011173e-01
  3.207920e+01    1.000575e+00
  3.210195e+01    6.073797e-01
  3.212471e+01    5.571254e-01
  3.214747e+01    7.362333e-01
  3.217023e+01    5.556604e-01
  3.219299e+01    6.109965e-01
  3.221574e+01    6.495697e-01
  3.223850e+01    7.154700e-01
  3.226126e+01    6.309903e-01
  3.228402e+01    7.502810e-01
  3.230678e+01    5.687572e-01
  3.232953e+01    9.291347e-01
  3.235229e+01    6.673470e-01
  3.237505e+01    6.346360e-01
  3.239781e+01    7.715098e-01
  3.242056e+01    5.699500e-01
  3.244332e+01    8.268045e-01
  3.246608e+01    7.904060e-01
  3.248884e+01    8.921943e-01
  3.251160e+01    6.682859e+00
  3.253435e+01    9.278137e+00
  3.255711e+01    7.255107e-01
  3.257987e+01    8.353095e-01
  3.260263e+01    5.587221e-01
  3.262539e+01    5.181097e-01
  3.264814e+01    9.569397e-01
  3.267090e+01    7.242542e-01
  3.269366e+01    7.892244e-01
  3.271642e+01    8.838083e-01
  3.273917e+01    8.668152e-01
  3.276193e+01    6.364179e-01
  3.278469e+01    4.675750e-01
  3.280745e+01    1.054773e+00
  3.283021e+01    5.062011e-01
  3.285296e+01    7.454605e-01
  3.287572e+01    6.371181e-01
  3.289848e+01    9.382570e-01
  3.292124e+01    8.770050e-01
  3.294400e+01    9.082099e-01
  3.296675e+01    8.137155e-01
  3.298951e+01    1.013674e+00
  3.301227e+01    1.055677e+00
  3.303503e+01    1.169799e+00
  3.305779e+01    6.749648e-01
  3.308054e+01    1.221009e+00
  3.310330e+01    6.525239e-01
  3.312606e+01    7.868061e-01
  3.314882e+01    8.129563e-01
  3.317157e+01    4.520517e-01
  3.319433e+01    3.221512e-01
  3.321709e+01    8.351571e-01
  3.323985e+01    1.065840e+00
  3.326261e+01    9.318605e-01
  3.328536e+01    7.707902e-01
  3.330812e+01    8.530867e-01
  3.333088e+01    1.481808e+00
  3.335364e+01    1.570429e+00
  3.337640e+01    5.425848e-01
  3.339915e+01    3.077976e-01
  3.342191e+01    7.782919e-01
  3.344467e+01    7.572403e-01
  3.346743e+01    0.000000e+00
  3.349018e+01    0.000000e+00
  3.351294e+01    0.000000e+00
  3.353570e+01    0.000000e+00
  3.355846e+01    0.000000e+00
  3.358122e+01    0.000000e+00
  3.360397e+01    0.000000e+00
  3.362673e+01    0.000000e+00
  3.364949e+01    0.000000e+00
  3.367225e+01    0.000000e+00
  3.369501e+01    0.000000e+00
  3.371776e+01    0.000000e+00
