# == pyFAI calibration ==
# Distance Sample to Detector: 0.21311058206280517 m
# PONI: 2.037e-01, 1.993e-01 m
# Rotations: -0.005459 0.000134 0.000000 rad
# 
# == Fit2d calibration ==
# Distance Sample-beamCenter: 213.114 mm
# Center: x=1002.134, y=1018.730 pix
# Tilt: 0.313 deg  TiltPlanRot: 1.411 deg
# 
# Detector Perkin detector	 PixelSize= 2.000e-04, 2.000e-04 m
#    Detector has a mask: False 
#    Detector has a dark current: False 
#    detector has a flat field: False 
# 
# Wavelength: 1.675e-11 m
# Mask applied: provided
# Dark current applied: False
# Flat field applied: False
# Polarization factor: None
# Normalization factor: 1.0
# --> data/chi_bkgsub_true/C_Tatania2-40.0-average.chi
#        q_A^-1             I 
  2.199784e-02    2.180998e+00
  4.478064e-02    1.953118e+00
  6.756343e-02    1.747679e+00
  9.034623e-02    1.513193e+00
  1.131290e-01    1.345116e+00
  1.359118e-01    1.401888e+00
  1.586946e-01    2.409324e+00
  1.814774e-01    2.013469e+00
  2.042602e-01    1.856519e+00
  2.270430e-01    2.735637e+00
  2.498258e-01    4.084802e+00
  2.726086e-01    7.969039e+00
  2.953914e-01    2.194073e+01
  3.181742e-01    4.769241e+01
  3.409570e-01    6.402753e+01
  3.637398e-01    5.325965e+01
  3.865226e-01    4.204707e+01
  4.093054e-01    4.400212e+01
  4.320881e-01    3.490311e+01
  4.548709e-01    2.073525e+01
  4.776537e-01    1.214776e+01
  5.004365e-01    9.490580e+00
  5.232193e-01    9.205215e+00
  5.460021e-01    1.001220e+01
  5.687849e-01    1.254620e+01
  5.915677e-01    1.503214e+01
  6.143505e-01    1.544495e+01
  6.371333e-01    1.510936e+01
  6.599161e-01    1.554750e+01
  6.826989e-01    1.816599e+01
  7.054817e-01    1.943354e+01
  7.282645e-01    1.905930e+01
  7.510473e-01    1.983718e+01
  7.738301e-01    2.147614e+01
  7.966129e-01    2.200334e+01
  8.193956e-01    2.328033e+01
  8.421784e-01    2.429472e+01
  8.649612e-01    2.311234e+01
  8.877440e-01    2.406875e+01
  9.105268e-01    2.568239e+01
  9.333096e-01    2.623892e+01
  9.560924e-01    2.717770e+01
  9.788752e-01    2.781111e+01
  1.001658e+00    2.957841e+01
  1.024441e+00    3.095783e+01
  1.047224e+00    3.216174e+01
  1.070006e+00    3.260030e+01
  1.092789e+00    3.391586e+01
  1.115572e+00    3.528830e+01
  1.138355e+00    3.738451e+01
  1.161138e+00    3.928205e+01
  1.183920e+00    4.139326e+01
  1.206703e+00    4.332835e+01
  1.229486e+00    4.584274e+01
  1.252269e+00    4.838224e+01
  1.275052e+00    5.083724e+01
  1.297834e+00    5.296926e+01
  1.320617e+00    5.544474e+01
  1.343400e+00    5.880541e+01
  1.366183e+00    6.194183e+01
  1.388966e+00    6.468108e+01
  1.411748e+00    6.720287e+01
  1.434531e+00    6.897585e+01
  1.457314e+00    7.007317e+01
  1.480097e+00    7.102026e+01
  1.502879e+00    7.380231e+01
  1.525662e+00    7.686393e+01
  1.548445e+00    7.858614e+01
  1.571228e+00    7.948483e+01
  1.594011e+00    8.051362e+01
  1.616793e+00    8.194698e+01
  1.639576e+00    8.310103e+01
  1.662359e+00    8.506802e+01
  1.685142e+00    8.871684e+01
  1.707925e+00    9.497518e+01
  1.730707e+00    1.037681e+02
  1.753490e+00    1.128711e+02
  1.776273e+00    1.174179e+02
  1.799056e+00    1.145201e+02
  1.821839e+00    1.059987e+02
  1.844621e+00    9.454794e+01
  1.867404e+00    8.521101e+01
  1.890187e+00    7.854819e+01
  1.912970e+00    7.396467e+01
  1.935753e+00    7.092334e+01
  1.958535e+00    6.855367e+01
  1.981318e+00    6.604033e+01
  2.004101e+00    6.394932e+01
  2.026884e+00    6.282834e+01
  2.049667e+00    6.182855e+01
  2.072449e+00    6.082742e+01
  2.095232e+00    5.933467e+01
  2.118015e+00    5.763914e+01
  2.140798e+00    5.566473e+01
  2.163581e+00    5.387484e+01
  2.186363e+00    5.252573e+01
  2.209146e+00    5.169883e+01
  2.231929e+00    5.118909e+01
  2.254712e+00    5.033255e+01
  2.277494e+00    4.905670e+01
  2.300277e+00    4.740804e+01
  2.323060e+00    4.572852e+01
  2.345843e+00    4.435665e+01
  2.368626e+00    4.300227e+01
  2.391408e+00    4.144046e+01
  2.414191e+00    4.004119e+01
  2.436974e+00    3.855394e+01
  2.459757e+00    3.739202e+01
  2.482540e+00    3.615585e+01
  2.505322e+00    3.542525e+01
  2.528105e+00    3.526505e+01
  2.550888e+00    3.592169e+01
  2.573671e+00    3.725121e+01
  2.596454e+00    3.894582e+01
  2.619236e+00    4.074913e+01
  2.642019e+00    4.129881e+01
  2.664802e+00    4.000550e+01
  2.687585e+00    3.796285e+01
  2.710368e+00    3.565293e+01
  2.733150e+00    3.407959e+01
  2.755933e+00    3.306292e+01
  2.778716e+00    3.236852e+01
  2.801499e+00    3.196998e+01
  2.824282e+00    3.173143e+01
  2.847064e+00    3.193645e+01
  2.869847e+00    3.223482e+01
  2.892630e+00    3.201646e+01
  2.915413e+00    3.102006e+01
  2.938196e+00    3.053782e+01
  2.960978e+00    3.055948e+01
  2.983761e+00    3.018150e+01
  3.006544e+00    2.935252e+01
  3.029327e+00    2.869812e+01
  3.052110e+00    2.853668e+01
  3.074892e+00    2.873638e+01
  3.097675e+00    2.962946e+01
  3.120458e+00    3.040324e+01
  3.143241e+00    3.071856e+01
  3.166023e+00    3.078690e+01
  3.188806e+00    3.123102e+01
  3.211589e+00    3.286901e+01
  3.234372e+00    3.489040e+01
  3.257155e+00    3.766700e+01
  3.279937e+00    4.087810e+01
  3.302720e+00    4.259172e+01
  3.325503e+00    4.157322e+01
  3.348286e+00    3.811371e+01
  3.371069e+00    3.461349e+01
  3.393851e+00    3.243811e+01
  3.416634e+00    3.136081e+01
  3.439417e+00    3.108990e+01
  3.462200e+00    3.059913e+01
  3.484983e+00    3.024497e+01
  3.507765e+00    2.958024e+01
  3.530548e+00    2.948649e+01
  3.553331e+00    2.993694e+01
  3.576114e+00    3.095269e+01
  3.598897e+00    3.240525e+01
  3.621679e+00    3.416251e+01
  3.644462e+00    3.627400e+01
  3.667245e+00    3.889851e+01
  3.690028e+00    4.143322e+01
  3.712811e+00    4.289426e+01
  3.735593e+00    4.317083e+01
  3.758376e+00    4.246835e+01
  3.781159e+00    4.061337e+01
  3.803942e+00    3.838592e+01
  3.826725e+00    3.665823e+01
  3.849507e+00    3.574772e+01
  3.872290e+00    3.541434e+01
  3.895073e+00    3.470395e+01
  3.917856e+00    3.418057e+01
  3.940638e+00    3.376033e+01
  3.963421e+00    3.331079e+01
  3.986204e+00    3.328576e+01
  4.008987e+00    3.325399e+01
  4.031770e+00    3.379459e+01
  4.054552e+00    3.461124e+01
  4.077335e+00    3.502214e+01
  4.100118e+00    3.547576e+01
  4.122901e+00    3.583493e+01
  4.145684e+00    3.640896e+01
  4.168466e+00    3.772317e+01
  4.191249e+00    3.909934e+01
  4.214032e+00    4.023240e+01
  4.236815e+00    4.039991e+01
  4.259598e+00    3.956094e+01
  4.282380e+00    3.810101e+01
  4.305163e+00    3.646789e+01
  4.327946e+00    3.509930e+01
  4.350729e+00    3.386100e+01
  4.373512e+00    3.277261e+01
  4.396294e+00    3.214553e+01
  4.419077e+00    3.177712e+01
  4.441860e+00    3.138132e+01
  4.464643e+00    3.112204e+01
  4.487426e+00    3.095739e+01
  4.510208e+00    3.053953e+01
  4.532991e+00    3.049177e+01
  4.555774e+00    3.106675e+01
  4.578557e+00    3.190746e+01
  4.601340e+00    3.275042e+01
  4.624122e+00    3.307824e+01
  4.646905e+00    3.299573e+01
  4.669688e+00    3.244179e+01
  4.692471e+00    3.162939e+01
  4.715253e+00    3.031232e+01
  4.738036e+00    2.883878e+01
  4.760819e+00    2.759471e+01
  4.783602e+00    2.708662e+01
  4.806385e+00    2.726615e+01
  4.829167e+00    2.731449e+01
  4.851950e+00    2.730839e+01
  4.874733e+00    2.769340e+01
  4.897516e+00    2.805150e+01
  4.920299e+00    2.868913e+01
  4.943081e+00    2.917842e+01
  4.965864e+00    2.936862e+01
  4.988647e+00    2.904552e+01
  5.011430e+00    2.849454e+01
  5.034213e+00    2.772515e+01
  5.056995e+00    2.683169e+01
  5.079778e+00    2.619243e+01
  5.102561e+00    2.540347e+01
  5.125344e+00    2.468189e+01
  5.148127e+00    2.414284e+01
  5.170909e+00    2.377682e+01
  5.193692e+00    2.359120e+01
  5.216475e+00    2.323900e+01
  5.239258e+00    2.317128e+01
  5.262041e+00    2.347128e+01
  5.284823e+00    2.352833e+01
  5.307606e+00    2.351833e+01
  5.330389e+00    2.368359e+01
  5.353172e+00    2.404065e+01
  5.375955e+00    2.389860e+01
  5.398737e+00    2.325932e+01
  5.421520e+00    2.234213e+01
  5.444303e+00    2.131291e+01
  5.467086e+00    2.032620e+01
  5.489869e+00    1.942717e+01
  5.512651e+00    1.867205e+01
  5.535434e+00    1.829975e+01
  5.558217e+00    1.780698e+01
  5.581000e+00    1.709100e+01
  5.603782e+00    1.651620e+01
  5.626565e+00    1.640132e+01
  5.649348e+00    1.646131e+01
  5.672131e+00    1.649498e+01
  5.694914e+00    1.663560e+01
  5.717696e+00    1.664589e+01
  5.740479e+00    1.642360e+01
  5.763262e+00    1.612135e+01
  5.786045e+00    1.567749e+01
  5.808828e+00    1.523183e+01
  5.831610e+00    1.509708e+01
  5.854393e+00    1.562814e+01
  5.877176e+00    1.640179e+01
  5.899959e+00    1.721742e+01
  5.922742e+00    1.783862e+01
  5.945524e+00    1.807921e+01
  5.968307e+00    1.854448e+01
  5.991090e+00    1.857582e+01
  6.013873e+00    1.810506e+01
  6.036656e+00    1.761723e+01
  6.059438e+00    1.713286e+01
  6.082221e+00    1.683719e+01
  6.105004e+00    1.692337e+01
  6.127787e+00    1.697295e+01
  6.150570e+00    1.695002e+01
  6.173352e+00    1.681313e+01
  6.196135e+00    1.655453e+01
  6.218918e+00    1.644990e+01
  6.241701e+00    1.650471e+01
  6.264484e+00    1.615474e+01
  6.287266e+00    1.575367e+01
  6.310049e+00    1.557224e+01
  6.332832e+00    1.563886e+01
  6.355615e+00    1.550973e+01
  6.378397e+00    1.508460e+01
  6.401180e+00    1.496540e+01
  6.423963e+00    1.487117e+01
  6.446746e+00    1.493078e+01
  6.469529e+00    1.509671e+01
  6.492311e+00    1.514467e+01
  6.515094e+00    1.538247e+01
  6.537877e+00    1.565427e+01
  6.560660e+00    1.554635e+01
  6.583443e+00    1.567396e+01
  6.606225e+00    1.585099e+01
  6.629008e+00    1.575860e+01
  6.651791e+00    1.542641e+01
  6.674574e+00    1.509823e+01
  6.697357e+00    1.481469e+01
  6.720139e+00    1.453596e+01
  6.742922e+00    1.441914e+01
  6.765705e+00    1.452317e+01
  6.788488e+00    1.490415e+01
  6.811271e+00    1.535633e+01
  6.834053e+00    1.565033e+01
  6.856836e+00    1.553975e+01
  6.879619e+00    1.507126e+01
  6.902402e+00    1.478741e+01
  6.925185e+00    1.457488e+01
  6.947967e+00    1.477208e+01
  6.970750e+00    1.525734e+01
  6.993533e+00    1.573317e+01
  7.016316e+00    1.581961e+01
  7.039099e+00    1.539993e+01
  7.061881e+00    1.510392e+01
  7.084664e+00    1.476669e+01
  7.107447e+00    1.469919e+01
  7.130230e+00    1.458176e+01
  7.153013e+00    1.452544e+01
  7.175795e+00    1.426760e+01
  7.198578e+00    1.394463e+01
  7.221361e+00    1.356600e+01
  7.244144e+00    1.330974e+01
  7.266926e+00    1.329746e+01
  7.289709e+00    1.340093e+01
  7.312492e+00    1.341797e+01
  7.335275e+00    1.358891e+01
  7.358058e+00    1.371237e+01
  7.380840e+00    1.388187e+01
  7.403623e+00    1.426670e+01
  7.426406e+00    1.439649e+01
  7.449189e+00    1.417996e+01
  7.471972e+00    1.409849e+01
  7.494754e+00    1.411273e+01
  7.517537e+00    1.411841e+01
  7.540320e+00    1.418399e+01
  7.563103e+00    1.422934e+01
  7.585886e+00    1.405296e+01
  7.608668e+00    1.398665e+01
  7.631451e+00    1.388906e+01
  7.654234e+00    1.382000e+01
  7.677017e+00    1.385248e+01
  7.699800e+00    1.391976e+01
  7.722582e+00    1.399096e+01
  7.745365e+00    1.394323e+01
  7.768148e+00    1.421336e+01
  7.790931e+00    1.446933e+01
  7.813714e+00    1.444677e+01
  7.836496e+00    1.443103e+01
  7.859279e+00    1.443675e+01
  7.882062e+00    1.428951e+01
  7.904845e+00    1.420238e+01
  7.927628e+00    1.391846e+01
  7.950410e+00    1.363562e+01
  7.973193e+00    1.354447e+01
  7.995976e+00    1.343236e+01
  8.018759e+00    1.342395e+01
  8.041541e+00    1.337681e+01
  8.064324e+00    1.309257e+01
  8.087107e+00    1.289164e+01
  8.109890e+00    1.285910e+01
  8.132673e+00    1.279910e+01
  8.155455e+00    1.258676e+01
  8.178238e+00    1.260761e+01
  8.201021e+00    1.270922e+01
  8.223804e+00    1.280805e+01
  8.246587e+00    1.277979e+01
  8.269369e+00    1.275563e+01
  8.292152e+00    1.263798e+01
  8.314935e+00    1.282670e+01
  8.337718e+00    1.297257e+01
  8.360501e+00    1.314912e+01
  8.383283e+00    1.330139e+01
  8.406066e+00    1.359094e+01
  8.428849e+00    1.368736e+01
  8.451632e+00    1.348530e+01
  8.474415e+00    1.314777e+01
  8.497197e+00    1.290820e+01
  8.519980e+00    1.266373e+01
  8.542763e+00    1.238631e+01
  8.565546e+00    1.217465e+01
  8.588329e+00    1.204033e+01
  8.611111e+00    1.206866e+01
  8.633894e+00    1.191708e+01
  8.656677e+00    1.183477e+01
  8.679460e+00    1.168332e+01
  8.702243e+00    1.164955e+01
  8.725025e+00    1.151610e+01
  8.747808e+00    1.151840e+01
  8.770591e+00    1.164075e+01
  8.793374e+00    1.152916e+01
  8.816156e+00    1.153073e+01
  8.838939e+00    1.157781e+01
  8.861722e+00    1.169045e+01
  8.884505e+00    1.168957e+01
  8.907288e+00    1.160339e+01
  8.930070e+00    1.153620e+01
  8.952853e+00    1.151524e+01
  8.975636e+00    1.150279e+01
  8.998419e+00    1.146652e+01
  9.021202e+00    1.137861e+01
  9.043984e+00    1.132679e+01
  9.066767e+00    1.120958e+01
  9.089550e+00    1.103110e+01
  9.112333e+00    1.085126e+01
  9.135116e+00    1.069908e+01
  9.157898e+00    1.052160e+01
  9.180681e+00    1.053177e+01
  9.203464e+00    1.039568e+01
  9.226247e+00    1.035752e+01
  9.249030e+00    1.036966e+01
  9.271812e+00    1.028640e+01
  9.294595e+00    1.024987e+01
  9.317378e+00    1.039246e+01
  9.340161e+00    1.038917e+01
  9.362944e+00    1.038130e+01
  9.385726e+00    1.043810e+01
  9.408509e+00    1.041357e+01
  9.431292e+00    1.027563e+01
  9.454075e+00    1.018586e+01
  9.476858e+00    1.030019e+01
  9.499640e+00    1.023563e+01
  9.522423e+00    1.019430e+01
  9.545206e+00    1.015177e+01
  9.567989e+00    9.916199e+00
  9.590772e+00    9.792146e+00
  9.613554e+00    9.834672e+00
  9.636337e+00    9.873484e+00
  9.659120e+00    9.677831e+00
  9.681903e+00    9.572523e+00
  9.704685e+00    9.543013e+00
  9.727468e+00    9.672636e+00
  9.750251e+00    9.678207e+00
  9.773034e+00    9.432005e+00
  9.795817e+00    9.400183e+00
  9.818599e+00    9.429353e+00
  9.841382e+00    9.423540e+00
  9.864165e+00    9.349561e+00
  9.886948e+00    9.297419e+00
  9.909731e+00    9.390530e+00
  9.932513e+00    9.405046e+00
  9.955296e+00    9.368217e+00
  9.978079e+00    9.327429e+00
  1.000086e+01    9.289999e+00
  1.002364e+01    9.307226e+00
  1.004643e+01    9.426528e+00
  1.006921e+01    9.483356e+00
  1.009199e+01    9.519313e+00
  1.011478e+01    9.427118e+00
  1.013756e+01    9.288628e+00
  1.016034e+01    9.374210e+00
  1.018312e+01    9.482934e+00
  1.020591e+01    9.474345e+00
  1.022869e+01    9.456506e+00
  1.025147e+01    9.480546e+00
  1.027426e+01    9.473729e+00
  1.029704e+01    9.380898e+00
  1.031982e+01    9.444827e+00
  1.034260e+01    9.386449e+00
  1.036539e+01    9.340120e+00
  1.038817e+01    9.377829e+00
  1.041095e+01    9.461539e+00
  1.043373e+01    9.468081e+00
  1.045652e+01    9.505455e+00
  1.047930e+01    9.428205e+00
  1.050208e+01    9.418283e+00
  1.052487e+01    9.442151e+00
  1.054765e+01    9.416703e+00
  1.057043e+01    9.369491e+00
  1.059321e+01    9.498335e+00
  1.061600e+01    9.624111e+00
  1.063878e+01    9.758611e+00
  1.066156e+01    9.760824e+00
  1.068435e+01    9.733106e+00
  1.070713e+01    9.733568e+00
  1.072991e+01    9.617952e+00
  1.075269e+01    9.587470e+00
  1.077548e+01    9.496621e+00
  1.079826e+01    9.407598e+00
  1.082104e+01    9.282830e+00
  1.084383e+01    9.287769e+00
  1.086661e+01    9.202015e+00
  1.088939e+01    9.027361e+00
  1.091217e+01    8.977057e+00
  1.093496e+01    8.906837e+00
  1.095774e+01    8.916897e+00
  1.098052e+01    8.973113e+00
  1.100330e+01    9.017116e+00
  1.102609e+01    9.078611e+00
  1.104887e+01    9.017177e+00
  1.107165e+01    9.005262e+00
  1.109444e+01    9.019569e+00
  1.111722e+01    8.932230e+00
  1.114000e+01    8.962873e+00
  1.116278e+01    8.929844e+00
  1.118557e+01    8.837864e+00
  1.120835e+01    8.743070e+00
  1.123113e+01    8.716805e+00
  1.125392e+01    8.674047e+00
  1.127670e+01    8.588286e+00
  1.129948e+01    8.631212e+00
  1.132226e+01    8.460926e+00
  1.134505e+01    8.458803e+00
  1.136783e+01    8.507630e+00
  1.139061e+01    8.415435e+00
  1.141340e+01    8.421801e+00
  1.143618e+01    8.435400e+00
  1.145896e+01    8.443535e+00
  1.148174e+01    8.419502e+00
  1.150453e+01    8.496665e+00
  1.152731e+01    8.622121e+00
  1.155009e+01    8.671507e+00
  1.157287e+01    8.723828e+00
  1.159566e+01    8.686417e+00
  1.161844e+01    8.676811e+00
  1.164122e+01    8.730164e+00
  1.166401e+01    8.733378e+00
  1.168679e+01    8.822686e+00
  1.170957e+01    8.830550e+00
  1.173235e+01    8.792524e+00
  1.175514e+01    8.805465e+00
  1.177792e+01    8.757344e+00
  1.180070e+01    8.686836e+00
  1.182349e+01    8.674235e+00
  1.184627e+01    8.670973e+00
  1.186905e+01    8.692415e+00
  1.189183e+01    8.696362e+00
  1.191462e+01    8.660873e+00
  1.193740e+01    8.552812e+00
  1.196018e+01    8.543215e+00
  1.198296e+01    8.453167e+00
  1.200575e+01    8.459818e+00
  1.202853e+01    8.526878e+00
  1.205131e+01    8.534897e+00
  1.207410e+01    8.467104e+00
  1.209688e+01    8.536043e+00
  1.211966e+01    8.573756e+00
  1.214244e+01    8.551527e+00
  1.216523e+01    8.426851e+00
  1.218801e+01    8.491759e+00
  1.221079e+01    8.382441e+00
  1.223358e+01    8.401203e+00
  1.225636e+01    8.362275e+00
  1.227914e+01    8.244031e+00
  1.230192e+01    8.317780e+00
  1.232471e+01    8.374728e+00
  1.234749e+01    8.455465e+00
  1.237027e+01    8.490382e+00
  1.239306e+01    8.392230e+00
  1.241584e+01    8.357602e+00
  1.243862e+01    8.330615e+00
  1.246140e+01    8.313627e+00
  1.248419e+01    8.392325e+00
  1.250697e+01    8.314822e+00
  1.252975e+01    8.254566e+00
  1.255253e+01    8.220757e+00
  1.257532e+01    8.126959e+00
  1.259810e+01    8.123006e+00
  1.262088e+01    8.069898e+00
  1.264367e+01    8.032322e+00
  1.266645e+01    7.974912e+00
  1.268923e+01    7.900985e+00
  1.271201e+01    7.791751e+00
  1.273480e+01    7.750741e+00
  1.275758e+01    7.762903e+00
  1.278036e+01    7.677463e+00
  1.280315e+01    7.705095e+00
  1.282593e+01    7.708481e+00
  1.284871e+01    7.689044e+00
  1.287149e+01    7.659310e+00
  1.289428e+01    7.570947e+00
  1.291706e+01    7.617424e+00
  1.293984e+01    7.642493e+00
  1.296263e+01    7.653483e+00
  1.298541e+01    7.652517e+00
  1.300819e+01    7.593566e+00
  1.303097e+01    7.592938e+00
  1.305376e+01    7.590621e+00
  1.307654e+01    7.562792e+00
  1.309932e+01    7.544109e+00
  1.312210e+01    7.561265e+00
  1.314489e+01    7.563844e+00
  1.316767e+01    7.471183e+00
  1.319045e+01    7.390088e+00
  1.321324e+01    7.416129e+00
  1.323602e+01    7.492914e+00
  1.325880e+01    7.652617e+00
  1.328158e+01    7.548960e+00
  1.330437e+01    7.421719e+00
  1.332715e+01    7.491244e+00
  1.334993e+01    7.573561e+00
  1.337272e+01    7.535443e+00
  1.339550e+01    7.545043e+00
  1.341828e+01    7.446068e+00
  1.344106e+01    7.299994e+00
  1.346385e+01    7.332603e+00
  1.348663e+01    7.407622e+00
  1.350941e+01    7.247629e+00
  1.353219e+01    7.160543e+00
  1.355498e+01    7.188773e+00
  1.357776e+01    7.200622e+00
  1.360054e+01    7.245808e+00
  1.362333e+01    7.343277e+00
  1.364611e+01    7.275579e+00
  1.366889e+01    7.240907e+00
  1.369167e+01    7.206283e+00
  1.371446e+01    7.160966e+00
  1.373724e+01    7.135496e+00
  1.376002e+01    7.154330e+00
  1.378281e+01    7.136791e+00
  1.380559e+01    7.176484e+00
  1.382837e+01    7.209816e+00
  1.385115e+01    7.148832e+00
  1.387394e+01    7.044474e+00
  1.389672e+01    7.044229e+00
  1.391950e+01    7.102355e+00
  1.394229e+01    7.126031e+00
  1.396507e+01    7.138372e+00
  1.398785e+01    7.116503e+00
  1.401063e+01    7.135804e+00
  1.403342e+01    7.116746e+00
  1.405620e+01    7.103977e+00
  1.407898e+01    7.066205e+00
  1.410176e+01    6.962247e+00
  1.412455e+01    6.993628e+00
  1.414733e+01    7.048440e+00
  1.417011e+01    7.029192e+00
  1.419290e+01    7.138226e+00
  1.421568e+01    7.157732e+00
  1.423846e+01    7.084324e+00
  1.426124e+01    6.916716e+00
  1.428403e+01    6.896522e+00
  1.430681e+01    7.017948e+00
  1.432959e+01    7.036738e+00
  1.435238e+01    7.007696e+00
  1.437516e+01    6.950566e+00
  1.439794e+01    6.945305e+00
  1.442072e+01    6.982810e+00
  1.444351e+01    7.040161e+00
  1.446629e+01    7.021759e+00
  1.448907e+01    6.949803e+00
  1.451186e+01    6.871132e+00
  1.453464e+01    6.770901e+00
  1.455742e+01    6.838865e+00
  1.458020e+01    6.729838e+00
  1.460299e+01    6.796006e+00
  1.462577e+01    6.833766e+00
  1.464855e+01    6.768578e+00
  1.467133e+01    6.739604e+00
  1.469412e+01    6.735346e+00
  1.471690e+01    6.864933e+00
  1.473968e+01    6.842131e+00
  1.476247e+01    6.742387e+00
  1.478525e+01    6.819333e+00
  1.480803e+01    6.806480e+00
  1.483081e+01    6.838202e+00
  1.485360e+01    6.839736e+00
  1.487638e+01    6.797004e+00
  1.489916e+01    6.789890e+00
  1.492195e+01    6.738243e+00
  1.494473e+01    6.642409e+00
  1.496751e+01    6.708637e+00
  1.499029e+01    6.709200e+00
  1.501308e+01    6.700171e+00
  1.503586e+01    6.600360e+00
  1.505864e+01    6.568388e+00
  1.508142e+01    6.673700e+00
  1.510421e+01    6.631642e+00
  1.512699e+01    6.718393e+00
  1.514977e+01    6.750433e+00
  1.517256e+01    6.628566e+00
  1.519534e+01    6.612366e+00
  1.521812e+01    6.587067e+00
  1.524090e+01    6.550371e+00
  1.526369e+01    6.540961e+00
  1.528647e+01    6.593164e+00
  1.530925e+01    6.580874e+00
  1.533204e+01    6.506561e+00
  1.535482e+01    6.482255e+00
  1.537760e+01    6.469184e+00
  1.540038e+01    6.486186e+00
  1.542317e+01    6.518148e+00
  1.544595e+01    6.441116e+00
  1.546873e+01    6.364862e+00
  1.549152e+01    6.346043e+00
  1.551430e+01    6.428500e+00
  1.553708e+01    6.456266e+00
  1.555986e+01    6.477820e+00
  1.558265e+01    6.455017e+00
  1.560543e+01    6.399305e+00
  1.562821e+01    6.375237e+00
  1.565099e+01    6.355676e+00
  1.567378e+01    6.391617e+00
  1.569656e+01    6.366408e+00
  1.571934e+01    6.317296e+00
  1.574213e+01    6.306386e+00
  1.576491e+01    6.258036e+00
  1.578769e+01    6.313180e+00
  1.581047e+01    6.310051e+00
  1.583326e+01    6.343694e+00
  1.585604e+01    6.302755e+00
  1.587882e+01    6.296085e+00
  1.590161e+01    6.366961e+00
  1.592439e+01    6.346740e+00
  1.594717e+01    6.350345e+00
  1.596995e+01    6.312084e+00
  1.599274e+01    6.257276e+00
  1.601552e+01    6.220745e+00
  1.603830e+01    6.264427e+00
  1.606109e+01    6.249673e+00
  1.608387e+01    6.276008e+00
  1.610665e+01    6.248556e+00
  1.612943e+01    6.211396e+00
  1.615222e+01    6.149660e+00
  1.617500e+01    6.127492e+00
  1.619778e+01    6.069006e+00
  1.622056e+01    6.115013e+00
  1.624335e+01    6.181990e+00
  1.626613e+01    6.212963e+00
  1.628891e+01    6.210958e+00
  1.631170e+01    6.231506e+00
  1.633448e+01    6.165770e+00
  1.635726e+01    6.111158e+00
  1.638004e+01    6.106370e+00
  1.640283e+01    6.081017e+00
  1.642561e+01    6.113495e+00
  1.644839e+01    6.165538e+00
  1.647118e+01    6.163895e+00
  1.649396e+01    6.105042e+00
  1.651674e+01    6.169998e+00
  1.653952e+01    6.107879e+00
  1.656231e+01    6.184726e+00
  1.658509e+01    6.162859e+00
  1.660787e+01    6.141675e+00
  1.663065e+01    6.110062e+00
  1.665344e+01    6.073925e+00
  1.667622e+01    6.017708e+00
  1.669900e+01    5.971830e+00
  1.672179e+01    5.980737e+00
  1.674457e+01    5.942586e+00
  1.676735e+01    5.942369e+00
  1.679013e+01    5.944675e+00
  1.681292e+01    5.953483e+00
  1.683570e+01    5.983557e+00
  1.685848e+01    6.033486e+00
  1.688127e+01    6.025880e+00
  1.690405e+01    5.955625e+00
  1.692683e+01    5.884120e+00
  1.694961e+01    5.788636e+00
  1.697240e+01    5.772528e+00
  1.699518e+01    5.816632e+00
  1.701796e+01    5.797742e+00
  1.704075e+01    5.800961e+00
  1.706353e+01    5.794119e+00
  1.708631e+01    5.773836e+00
  1.710909e+01    5.754660e+00
  1.713188e+01    5.765440e+00
  1.715466e+01    5.855960e+00
  1.717744e+01    5.815012e+00
  1.720022e+01    5.739099e+00
  1.722301e+01    5.715001e+00
  1.724579e+01    5.671577e+00
  1.726857e+01    5.630414e+00
  1.729136e+01    5.624660e+00
  1.731414e+01    5.696267e+00
  1.733692e+01    5.642704e+00
  1.735970e+01    5.649003e+00
  1.738249e+01    5.592930e+00
  1.740527e+01    5.638385e+00
  1.742805e+01    5.680301e+00
  1.745084e+01    5.637393e+00
  1.747362e+01    5.595829e+00
  1.749640e+01    5.610868e+00
  1.751918e+01    5.625487e+00
  1.754197e+01    5.529227e+00
  1.756475e+01    5.546517e+00
  1.758753e+01    5.515240e+00
  1.761032e+01    5.581325e+00
  1.763310e+01    5.551771e+00
  1.765588e+01    5.570866e+00
  1.767866e+01    5.541840e+00
  1.770145e+01    5.590942e+00
  1.772423e+01    5.558634e+00
  1.774701e+01    5.502055e+00
  1.776979e+01    5.507106e+00
  1.779258e+01    5.501683e+00
  1.781536e+01    5.504498e+00
  1.783814e+01    5.549009e+00
  1.786093e+01    5.542670e+00
  1.788371e+01    5.560112e+00
  1.790649e+01    5.539587e+00
  1.792927e+01    5.524805e+00
  1.795206e+01    5.526069e+00
  1.797484e+01    5.465608e+00
  1.799762e+01    5.491332e+00
  1.802041e+01    5.402970e+00
  1.804319e+01    5.456024e+00
  1.806597e+01    5.476161e+00
  1.808875e+01    5.452765e+00
  1.811154e+01    5.376264e+00
  1.813432e+01    5.311779e+00
  1.815710e+01    5.294316e+00
  1.817989e+01    5.356305e+00
  1.820267e+01    5.371754e+00
  1.822545e+01    5.376694e+00
  1.824823e+01    5.341834e+00
  1.827102e+01    5.294788e+00
  1.829380e+01    5.341431e+00
  1.831658e+01    5.392684e+00
  1.833936e+01    5.381090e+00
  1.836215e+01    5.340479e+00
  1.838493e+01    5.338581e+00
  1.840771e+01    5.282876e+00
  1.843050e+01    5.291769e+00
  1.845328e+01    5.350634e+00
  1.847606e+01    5.377693e+00
  1.849884e+01    5.310068e+00
  1.852163e+01    5.264277e+00
  1.854441e+01    5.273901e+00
  1.856719e+01    5.249277e+00
  1.858998e+01    5.231521e+00
  1.861276e+01    5.254954e+00
  1.863554e+01    5.282091e+00
  1.865832e+01    5.283890e+00
  1.868111e+01    5.220047e+00
  1.870389e+01    5.241034e+00
  1.872667e+01    5.243675e+00
  1.874945e+01    5.256698e+00
  1.877224e+01    5.281430e+00
  1.879502e+01    5.252142e+00
  1.881780e+01    5.200244e+00
  1.884059e+01    5.151816e+00
  1.886337e+01    5.152829e+00
  1.888615e+01    5.117492e+00
  1.890893e+01    5.153568e+00
  1.893172e+01    5.217683e+00
  1.895450e+01    5.222308e+00
  1.897728e+01    5.158330e+00
  1.900007e+01    5.220870e+00
  1.902285e+01    5.187024e+00
  1.904563e+01    5.103299e+00
  1.906841e+01    5.080842e+00
  1.909120e+01    5.041657e+00
  1.911398e+01    5.077805e+00
  1.913676e+01    5.114336e+00
  1.915955e+01    5.115941e+00
  1.918233e+01    5.139029e+00
  1.920511e+01    5.098350e+00
  1.922789e+01    5.067260e+00
  1.925068e+01    5.097100e+00
  1.927346e+01    5.087128e+00
  1.929624e+01    5.052564e+00
  1.931902e+01    5.107608e+00
  1.934181e+01    5.082359e+00
  1.936459e+01    5.046993e+00
  1.938737e+01    4.992653e+00
  1.941016e+01    5.015889e+00
  1.943294e+01    5.026360e+00
  1.945572e+01    5.026501e+00
  1.947850e+01    5.014427e+00
  1.950129e+01    4.997576e+00
  1.952407e+01    4.962101e+00
  1.954685e+01    4.971952e+00
  1.956964e+01    4.986120e+00
  1.959242e+01    4.958625e+00
  1.961520e+01    4.945343e+00
  1.963798e+01    4.929934e+00
  1.966077e+01    4.899415e+00
  1.968355e+01    4.971822e+00
  1.970633e+01    4.998849e+00
  1.972912e+01    4.942159e+00
  1.975190e+01    4.881203e+00
  1.977468e+01    4.872110e+00
  1.979746e+01    4.864923e+00
  1.982025e+01    4.857988e+00
  1.984303e+01    4.828745e+00
  1.986581e+01    4.806895e+00
  1.988859e+01    4.822831e+00
  1.991138e+01    4.855822e+00
  1.993416e+01    4.821161e+00
  1.995694e+01    4.856912e+00
  1.997973e+01    4.886964e+00
  2.000251e+01    4.893864e+00
  2.002529e+01    4.861996e+00
  2.004807e+01    4.850008e+00
  2.007086e+01    4.842974e+00
  2.009364e+01    4.807546e+00
  2.011642e+01    4.838297e+00
  2.013921e+01    4.806911e+00
  2.016199e+01    4.761577e+00
  2.018477e+01    4.743343e+00
  2.020755e+01    4.702941e+00
  2.023034e+01    4.722926e+00
  2.025312e+01    4.742159e+00
  2.027590e+01    4.784315e+00
  2.029868e+01    4.827665e+00
  2.032147e+01    4.817295e+00
  2.034425e+01    4.762459e+00
  2.036703e+01    4.697436e+00
  2.038982e+01    4.653794e+00
  2.041260e+01    4.656796e+00
  2.043538e+01    4.686580e+00
  2.045816e+01    4.658944e+00
  2.048095e+01    4.680402e+00
  2.050373e+01    4.697290e+00
  2.052651e+01    4.662371e+00
  2.054930e+01    4.682841e+00
  2.057208e+01    4.697690e+00
  2.059486e+01    4.701060e+00
  2.061764e+01    4.622124e+00
  2.064043e+01    4.604886e+00
  2.066321e+01    4.598208e+00
  2.068599e+01    4.598128e+00
  2.070878e+01    4.603670e+00
  2.073156e+01    4.586699e+00
  2.075434e+01    4.549720e+00
  2.077712e+01    4.564938e+00
  2.079991e+01    4.507534e+00
  2.082269e+01    4.500958e+00
  2.084547e+01    4.520891e+00
  2.086825e+01    4.502374e+00
  2.089104e+01    4.539035e+00
  2.091382e+01    4.491589e+00
  2.093660e+01    4.518971e+00
  2.095939e+01    4.527171e+00
  2.098217e+01    4.522527e+00
  2.100495e+01    4.511014e+00
  2.102773e+01    4.500721e+00
  2.105052e+01    4.443030e+00
  2.107330e+01    4.410403e+00
  2.109608e+01    4.426928e+00
  2.111887e+01    4.449777e+00
  2.114165e+01    4.428860e+00
  2.116443e+01    4.397043e+00
  2.118721e+01    4.465305e+00
  2.121000e+01    4.464729e+00
  2.123278e+01    4.409549e+00
  2.125556e+01    4.416382e+00
  2.127835e+01    4.483739e+00
  2.130113e+01    4.429891e+00
  2.132391e+01    4.432837e+00
  2.134669e+01    4.469672e+00
  2.136948e+01    4.435929e+00
  2.139226e+01    4.414277e+00
  2.141504e+01    4.393209e+00
  2.143782e+01    4.404168e+00
  2.146061e+01    4.368268e+00
  2.148339e+01    4.365243e+00
  2.150617e+01    4.334717e+00
  2.152896e+01    4.323503e+00
  2.155174e+01    4.355081e+00
  2.157452e+01    4.365151e+00
  2.159730e+01    4.366526e+00
  2.162009e+01    4.303380e+00
  2.164287e+01    4.286935e+00
  2.166565e+01    4.298629e+00
  2.168844e+01    4.296883e+00
  2.171122e+01    4.301229e+00
  2.173400e+01    4.321842e+00
  2.175678e+01    4.297439e+00
  2.177957e+01    4.231490e+00
  2.180235e+01    4.212563e+00
  2.182513e+01    4.224340e+00
  2.184791e+01    4.250412e+00
  2.187070e+01    4.240013e+00
  2.189348e+01    4.231795e+00
  2.191626e+01    4.221893e+00
  2.193905e+01    4.229939e+00
  2.196183e+01    4.230024e+00
  2.198461e+01    4.237095e+00
  2.200739e+01    4.230671e+00
  2.203018e+01    4.205272e+00
  2.205296e+01    4.175720e+00
  2.207574e+01    4.172171e+00
  2.209853e+01    4.211505e+00
  2.212131e+01    4.215418e+00
  2.214409e+01    4.201634e+00
  2.216687e+01    4.210688e+00
  2.218966e+01    4.207575e+00
  2.221244e+01    4.171637e+00
  2.223522e+01    4.133851e+00
  2.225801e+01    4.141552e+00
  2.228079e+01    4.140682e+00
  2.230357e+01    4.161227e+00
  2.232635e+01    4.181679e+00
  2.234914e+01    4.170791e+00
  2.237192e+01    4.205122e+00
  2.239470e+01    4.193288e+00
  2.241748e+01    4.135128e+00
  2.244027e+01    4.068524e+00
  2.246305e+01    4.115523e+00
  2.248583e+01    4.133963e+00
  2.250862e+01    4.151489e+00
  2.253140e+01    4.073404e+00
  2.255418e+01    4.079963e+00
  2.257696e+01    4.064825e+00
  2.259975e+01    4.028231e+00
  2.262253e+01    4.059786e+00
  2.264531e+01    4.073730e+00
  2.266810e+01    4.109562e+00
  2.269088e+01    4.096440e+00
  2.271366e+01    4.116830e+00
  2.273644e+01    4.123944e+00
  2.275923e+01    4.086314e+00
  2.278201e+01    4.040926e+00
  2.280479e+01    3.999635e+00
  2.282758e+01    4.019889e+00
  2.285036e+01    4.064243e+00
  2.287314e+01    4.073751e+00
  2.289592e+01    4.009375e+00
  2.291871e+01    4.016536e+00
  2.294149e+01    4.015163e+00
  2.296427e+01    4.024213e+00
  2.298705e+01    4.028426e+00
  2.300984e+01    4.022875e+00
  2.303262e+01    4.016882e+00
  2.305540e+01    4.036511e+00
  2.307819e+01    4.009529e+00
  2.310097e+01    4.044021e+00
  2.312375e+01    3.981901e+00
  2.314653e+01    3.952945e+00
  2.316932e+01    3.928673e+00
  2.319210e+01    3.949137e+00
  2.321488e+01    3.974523e+00
  2.323767e+01    3.919615e+00
  2.326045e+01    3.912245e+00
  2.328323e+01    3.935931e+00
  2.330601e+01    3.899132e+00
  2.332880e+01    3.925074e+00
  2.335158e+01    3.921325e+00
  2.337436e+01    3.947423e+00
  2.339714e+01    3.936810e+00
  2.341993e+01    3.884233e+00
  2.344271e+01    3.870577e+00
  2.346549e+01    3.904240e+00
  2.348828e+01    3.917463e+00
  2.351106e+01    3.903791e+00
  2.353384e+01    3.972259e+00
  2.355662e+01    3.896957e+00
  2.357941e+01    3.881337e+00
  2.360219e+01    3.913486e+00
  2.362497e+01    3.896125e+00
  2.364776e+01    3.891422e+00
  2.367054e+01    3.855547e+00
  2.369332e+01    3.819719e+00
  2.371610e+01    3.825208e+00
  2.373889e+01    3.827822e+00
  2.376167e+01    3.788769e+00
  2.378445e+01    3.773854e+00
  2.380724e+01    3.752934e+00
  2.383002e+01    3.759964e+00
  2.385280e+01    3.811674e+00
  2.387558e+01    3.780300e+00
  2.389837e+01    3.769235e+00
  2.392115e+01    3.768224e+00
  2.394393e+01    3.734747e+00
  2.396671e+01    3.715375e+00
  2.398950e+01    3.711355e+00
  2.401228e+01    3.732999e+00
  2.403506e+01    3.731777e+00
  2.405785e+01    3.727643e+00
  2.408063e+01    3.700391e+00
  2.410341e+01    3.682344e+00
  2.412619e+01    3.748990e+00
  2.414898e+01    3.784134e+00
  2.417176e+01    3.765476e+00
  2.419454e+01    3.700357e+00
  2.421733e+01    3.726148e+00
  2.424011e+01    3.722468e+00
  2.426289e+01    3.654789e+00
  2.428567e+01    3.672325e+00
  2.430846e+01    3.642246e+00
  2.433124e+01    3.640091e+00
  2.435402e+01    3.695838e+00
  2.437681e+01    3.622637e+00
  2.439959e+01    3.638721e+00
  2.442237e+01    3.625896e+00
  2.444515e+01    3.655780e+00
  2.446794e+01    3.613955e+00
  2.449072e+01    3.560734e+00
  2.451350e+01    3.585545e+00
  2.453628e+01    3.569330e+00
  2.455907e+01    3.612513e+00
  2.458185e+01    3.591572e+00
  2.460463e+01    3.611152e+00
  2.462742e+01    3.580081e+00
  2.465020e+01    3.581287e+00
  2.467298e+01    3.588806e+00
  2.469576e+01    3.543938e+00
  2.471855e+01    3.544645e+00
  2.474133e+01    3.547701e+00
  2.476411e+01    3.563682e+00
  2.478690e+01    3.615915e+00
  2.480968e+01    3.569806e+00
  2.483246e+01    3.566729e+00
  2.485524e+01    3.488841e+00
  2.487803e+01    3.495321e+00
  2.490081e+01    3.539572e+00
  2.492359e+01    3.590727e+00
  2.494637e+01    3.514512e+00
  2.496916e+01    3.528462e+00
  2.499194e+01    3.519329e+00
  2.501472e+01    3.532809e+00
  2.503751e+01    3.537295e+00
  2.506029e+01    3.525702e+00
  2.508307e+01    3.473179e+00
  2.510585e+01    3.472906e+00
  2.512864e+01    3.478678e+00
  2.515142e+01    3.435012e+00
  2.517420e+01    3.423834e+00
  2.519699e+01    3.442247e+00
  2.521977e+01    3.427067e+00
  2.524255e+01    3.402145e+00
  2.526533e+01    3.429415e+00
  2.528812e+01    3.479938e+00
  2.531090e+01    3.422206e+00
  2.533368e+01    3.404490e+00
  2.535647e+01    3.372642e+00
  2.537925e+01    3.405510e+00
  2.540203e+01    3.452587e+00
  2.542481e+01    3.379456e+00
  2.544760e+01    3.407561e+00
  2.547038e+01    3.359667e+00
  2.549316e+01    3.356377e+00
  2.551594e+01    3.334903e+00
  2.553873e+01    3.317329e+00
  2.556151e+01    3.330304e+00
  2.558429e+01    3.375339e+00
  2.560708e+01    3.389369e+00
  2.562986e+01    3.346123e+00
  2.565264e+01    3.316417e+00
  2.567542e+01    3.339149e+00
  2.569821e+01    3.355686e+00
  2.572099e+01    3.308571e+00
  2.574377e+01    3.287177e+00
  2.576656e+01    3.307973e+00
  2.578934e+01    3.316735e+00
  2.581212e+01    3.264374e+00
  2.583490e+01    3.270489e+00
  2.585769e+01    3.254606e+00
  2.588047e+01    3.274063e+00
  2.590325e+01    3.275645e+00
  2.592604e+01    3.259589e+00
  2.594882e+01    3.238505e+00
  2.597160e+01    3.260961e+00
  2.599438e+01    3.290665e+00
  2.601717e+01    3.222592e+00
  2.603995e+01    3.257477e+00
  2.606273e+01    3.226668e+00
  2.608551e+01    3.245923e+00
  2.610830e+01    3.217863e+00
  2.613108e+01    3.197246e+00
  2.615386e+01    3.181896e+00
  2.617665e+01    3.199557e+00
  2.619943e+01    3.162139e+00
  2.622221e+01    3.162053e+00
  2.624499e+01    3.152698e+00
  2.626778e+01    3.163143e+00
  2.629056e+01    3.176676e+00
  2.631334e+01    3.195208e+00
  2.633613e+01    3.174496e+00
  2.635891e+01    3.143888e+00
  2.638169e+01    3.148052e+00
  2.640447e+01    3.122951e+00
  2.642726e+01    3.102752e+00
  2.645004e+01    3.107081e+00
  2.647282e+01    3.129413e+00
  2.649560e+01    3.128795e+00
  2.651839e+01    3.080640e+00
  2.654117e+01    3.128020e+00
  2.656395e+01    3.096379e+00
  2.658674e+01    3.109693e+00
  2.660952e+01    3.103888e+00
  2.663230e+01    3.108626e+00
  2.665508e+01    3.101409e+00
  2.667787e+01    3.075426e+00
  2.670065e+01    3.091101e+00
  2.672343e+01    3.099868e+00
  2.674622e+01    3.121341e+00
  2.676900e+01    3.114969e+00
  2.679178e+01    3.085300e+00
  2.681456e+01    3.083576e+00
  2.683735e+01    3.093330e+00
  2.686013e+01    3.095526e+00
  2.688291e+01    3.080679e+00
  2.690570e+01    3.087105e+00
  2.692848e+01    3.082510e+00
  2.695126e+01    3.057335e+00
  2.697404e+01    3.013976e+00
  2.699683e+01    3.053525e+00
  2.701961e+01    3.050099e+00
  2.704239e+01    3.079191e+00
  2.706517e+01    3.068267e+00
  2.708796e+01    3.078059e+00
  2.711074e+01    3.092997e+00
  2.713352e+01    3.061674e+00
  2.715631e+01    3.068605e+00
  2.717909e+01    3.071647e+00
  2.720187e+01    3.060481e+00
  2.722465e+01    3.032227e+00
  2.724744e+01    3.074127e+00
  2.727022e+01    3.106977e+00
  2.729300e+01    3.101683e+00
  2.731579e+01    3.104903e+00
  2.733857e+01    3.102378e+00
  2.736135e+01    3.095183e+00
  2.738413e+01    3.070467e+00
  2.740692e+01    3.048949e+00
  2.742970e+01    3.091459e+00
  2.745248e+01    3.105728e+00
  2.747527e+01    3.066534e+00
  2.749805e+01    3.105141e+00
  2.752083e+01    3.072114e+00
  2.754361e+01    3.046164e+00
  2.756640e+01    3.041435e+00
  2.758918e+01    3.049387e+00
  2.761196e+01    3.025959e+00
  2.763474e+01    3.034066e+00
  2.765753e+01    3.010440e+00
  2.768031e+01    3.044282e+00
  2.770309e+01    3.037550e+00
  2.772588e+01    3.031585e+00
  2.774866e+01    3.009475e+00
  2.777144e+01    2.991212e+00
  2.779422e+01    2.980660e+00
  2.781701e+01    2.949167e+00
  2.783979e+01    2.977683e+00
  2.786257e+01    3.039601e+00
  2.788536e+01    3.003077e+00
  2.790814e+01    2.992344e+00
  2.793092e+01    2.959743e+00
  2.795370e+01    2.978534e+00
  2.797649e+01    2.966634e+00
  2.799927e+01    3.010148e+00
  2.802205e+01    2.954746e+00
  2.804483e+01    2.949076e+00
  2.806762e+01    2.983599e+00
  2.809040e+01    2.956776e+00
  2.811318e+01    2.893838e+00
  2.813597e+01    2.949615e+00
  2.815875e+01    2.923002e+00
  2.818153e+01    2.935317e+00
  2.820431e+01    2.919354e+00
  2.822710e+01    2.944072e+00
  2.824988e+01    2.881519e+00
  2.827266e+01    2.877679e+00
  2.829545e+01    2.899254e+00
  2.831823e+01    2.882668e+00
  2.834101e+01    2.889641e+00
  2.836379e+01    2.865912e+00
  2.838658e+01    2.880256e+00
  2.840936e+01    2.884827e+00
  2.843214e+01    2.893924e+00
  2.845493e+01    2.867541e+00
  2.847771e+01    2.834271e+00
  2.850049e+01    2.846687e+00
  2.852327e+01    2.819146e+00
  2.854606e+01    2.825915e+00
  2.856884e+01    2.850988e+00
  2.859162e+01    2.840666e+00
  2.861440e+01    2.847768e+00
  2.863719e+01    2.814799e+00
  2.865997e+01    2.799936e+00
  2.868275e+01    2.877378e+00
  2.870554e+01    2.799131e+00
  2.872832e+01    2.760632e+00
  2.875110e+01    2.802183e+00
  2.877388e+01    2.779332e+00
  2.879667e+01    2.727068e+00
  2.881945e+01    2.731169e+00
  2.884223e+01    2.748500e+00
  2.886502e+01    2.779636e+00
  2.888780e+01    2.797831e+00
  2.891058e+01    2.823738e+00
  2.893336e+01    2.782042e+00
  2.895615e+01    2.728715e+00
  2.897893e+01    2.757018e+00
  2.900171e+01    2.778764e+00
  2.902450e+01    2.707706e+00
  2.904728e+01    2.701412e+00
  2.907006e+01    2.766334e+00
  2.909284e+01    2.794507e+00
  2.911563e+01    2.760578e+00
  2.913841e+01    2.779929e+00
  2.916119e+01    2.786721e+00
  2.918397e+01    2.785803e+00
  2.920676e+01    2.758539e+00
  2.922954e+01    2.781698e+00
  2.925232e+01    2.792847e+00
  2.927511e+01    2.807398e+00
  2.929789e+01    2.782829e+00
  2.932067e+01    2.786624e+00
  2.934345e+01    2.804532e+00
  2.936624e+01    2.790024e+00
  2.938902e+01    2.784462e+00
  2.941180e+01    2.759452e+00
  2.943459e+01    2.719433e+00
  2.945737e+01    2.708994e+00
  2.948015e+01    2.797572e+00
  2.950293e+01    2.806717e+00
  2.952572e+01    2.753749e+00
  2.954850e+01    2.716908e+00
  2.957128e+01    2.745524e+00
  2.959407e+01    2.729187e+00
  2.961685e+01    2.741272e+00
  2.963963e+01    2.736559e+00
  2.966241e+01    2.751847e+00
  2.968520e+01    2.732548e+00
  2.970798e+01    2.737718e+00
  2.973076e+01    2.660235e+00
  2.975354e+01    2.671573e+00
  2.977633e+01    2.644227e+00
  2.979911e+01    2.699332e+00
  2.982189e+01    2.673246e+00
  2.984468e+01    2.647889e+00
  2.986746e+01    2.711546e+00
  2.989024e+01    2.650306e+00
  2.991302e+01    2.665822e+00
  2.993581e+01    2.642123e+00
  2.995859e+01    2.666345e+00
  2.998137e+01    2.646729e+00
  3.000416e+01    2.688878e+00
  3.002694e+01    2.618583e+00
  3.004972e+01    2.642881e+00
  3.007250e+01    2.662251e+00
  3.009529e+01    2.595113e+00
  3.011807e+01    2.601561e+00
  3.014085e+01    2.580947e+00
  3.016363e+01    2.626009e+00
  3.018642e+01    2.558485e+00
  3.020920e+01    2.587575e+00
  3.023198e+01    2.517662e+00
  3.025477e+01    2.582932e+00
  3.027755e+01    2.476042e+00
  3.030033e+01    2.529503e+00
  3.032311e+01    2.570759e+00
  3.034590e+01    2.509470e+00
  3.036868e+01    2.509823e+00
  3.039146e+01    2.541141e+00
  3.041425e+01    2.544883e+00
  3.043703e+01    2.571330e+00
  3.045981e+01    2.497939e+00
  3.048259e+01    2.437707e+00
  3.050538e+01    2.504692e+00
  3.052816e+01    2.428351e+00
  3.055094e+01    2.404468e+00
  3.057373e+01    2.417251e+00
  3.059651e+01    2.440771e+00
  3.061929e+01    2.385190e+00
  3.064207e+01    2.407679e+00
  3.066486e+01    2.435904e+00
  3.068764e+01    2.414464e+00
  3.071042e+01    2.346955e+00
  3.073320e+01    2.375372e+00
  3.075599e+01    2.354059e+00
  3.077877e+01    2.397142e+00
  3.080155e+01    2.343034e+00
  3.082434e+01    2.302656e+00
  3.084712e+01    2.443836e+00
  3.086990e+01    2.402939e+00
  3.089268e+01    2.280027e+00
  3.091547e+01    2.319243e+00
  3.093825e+01    2.317257e+00
  3.096103e+01    2.239636e+00
  3.098382e+01    2.282958e+00
  3.100660e+01    2.235932e+00
  3.102938e+01    2.257455e+00
  3.105216e+01    2.260298e+00
  3.107495e+01    2.259248e+00
  3.109773e+01    2.195926e+00
  3.112051e+01    2.228557e+00
  3.114330e+01    2.219363e+00
  3.116608e+01    2.203274e+00
  3.118886e+01    2.186602e+00
  3.121164e+01    2.212821e+00
  3.123443e+01    2.266608e+00
  3.125721e+01    2.230068e+00
  3.127999e+01    2.210523e+00
  3.130277e+01    2.198089e+00
  3.132556e+01    2.241064e+00
  3.134834e+01    2.170130e+00
  3.137112e+01    2.142026e+00
  3.139391e+01    2.192434e+00
  3.141669e+01    2.197351e+00
  3.143947e+01    2.108358e+00
  3.146225e+01    2.100322e+00
  3.148504e+01    2.062679e+00
  3.150782e+01    2.146994e+00
  3.153060e+01    2.188987e+00
  3.155339e+01    2.109741e+00
  3.157617e+01    2.047036e+00
  3.159895e+01    2.071819e+00
  3.162173e+01    2.034522e+00
  3.164452e+01    2.140590e+00
  3.166730e+01    2.061173e+00
  3.169008e+01    1.987201e+00
  3.171286e+01    2.039114e+00
  3.173565e+01    2.061888e+00
  3.175843e+01    2.043367e+00
  3.178121e+01    1.982173e+00
  3.180400e+01    2.039012e+00
  3.182678e+01    2.055902e+00
  3.184956e+01    1.973252e+00
  3.187234e+01    2.040923e+00
  3.189513e+01    1.993057e+00
  3.191791e+01    1.926727e+00
  3.194069e+01    2.007774e+00
  3.196348e+01    1.922009e+00
  3.198626e+01    1.964829e+00
  3.200904e+01    2.037502e+00
  3.203182e+01    1.936735e+00
  3.205461e+01    1.922128e+00
  3.207739e+01    1.978860e+00
  3.210017e+01    1.969424e+00
  3.212296e+01    2.013388e+00
  3.214574e+01    2.008879e+00
  3.216852e+01    1.924432e+00
  3.219130e+01    1.875606e+00
  3.221409e+01    1.966057e+00
  3.223687e+01    1.920922e+00
  3.225965e+01    2.013709e+00
  3.228243e+01    1.893584e+00
  3.230522e+01    1.938177e+00
  3.232800e+01    1.925402e+00
  3.235078e+01    1.930982e+00
  3.237357e+01    1.946056e+00
  3.239635e+01    1.912546e+00
  3.241913e+01    1.952482e+00
  3.244191e+01    1.964079e+00
  3.246470e+01    1.864532e+00
  3.248748e+01    1.905864e+00
  3.251026e+01    1.866630e+00
  3.253305e+01    1.822125e+00
  3.255583e+01    1.924897e+00
  3.257861e+01    1.867119e+00
  3.260139e+01    1.941404e+00
  3.262418e+01    1.946944e+00
  3.264696e+01    1.839924e+00
  3.266974e+01    1.836485e+00
  3.269253e+01    1.897549e+00
  3.271531e+01    1.844774e+00
  3.273809e+01    1.842642e+00
  3.276087e+01    1.890650e+00
  3.278366e+01    1.835767e+00
  3.280644e+01    1.911089e+00
  3.282922e+01    1.815844e+00
  3.285200e+01    1.793426e+00
  3.287479e+01    1.931095e+00
  3.289757e+01    1.880926e+00
  3.292035e+01    1.778428e+00
  3.294314e+01    1.748960e+00
  3.296592e+01    1.705187e+00
  3.298870e+01    1.855805e+00
  3.301148e+01    1.772103e+00
  3.303427e+01    1.879391e+00
  3.305705e+01    1.816238e+00
  3.307983e+01    1.793164e+00
  3.310262e+01    1.805469e+00
  3.312540e+01    1.793867e+00
  3.314818e+01    1.617141e+00
  3.317096e+01    1.721130e+00
  3.319375e+01    1.569511e+00
  3.321653e+01    1.586564e+00
  3.323931e+01    1.563799e+00
  3.326209e+01    1.309692e+00
  3.328488e+01    1.443498e+00
  3.330766e+01    1.395752e+00
  3.333044e+01    1.570112e+00
  3.335323e+01    1.284578e+00
  3.337601e+01    1.355881e+00
  3.339879e+01    1.391560e+00
  3.342157e+01    1.194751e+00
  3.344436e+01    2.362819e+00
  3.346714e+01    6.677851e-01
  3.348992e+01    9.865478e-01
  3.351271e+01    1.081172e+00
  3.353549e+01    0.000000e+00
  3.355827e+01    0.000000e+00
  3.358105e+01    0.000000e+00
  3.360384e+01    0.000000e+00
  3.362662e+01    0.000000e+00
  3.364940e+01    0.000000e+00
  3.367219e+01    0.000000e+00
  3.369497e+01    0.000000e+00
  3.371775e+01    0.000000e+00
