# == pyFAI calibration ==
# Distance Sample to Detector: 0.21311058206280517 m
# PONI: 2.037e-01, 1.993e-01 m
# Rotations: -0.005459 0.000134 0.000000 rad
# 
# == Fit2d calibration ==
# Distance Sample-beamCenter: 213.114 mm
# Center: x=1002.134, y=1018.730 pix
# Tilt: 0.313 deg  TiltPlanRot: 1.411 deg
# 
# Detector Perkin detector	 PixelSize= 2.000e-04, 2.000e-04 m
#    Detector has a mask: False 
#    Detector has a dark current: False 
#    detector has a flat field: False 
# 
# Wavelength: 1.675e-11 m
# Mask applied: provided
# Dark current applied: False
# Flat field applied: False
# Polarization factor: None
# Normalization factor: 1.0
# --> data/chi_bkgsub_true/C_Tatania6-18.5-average.chi
#        q_A^-1             I 
  2.199784e-02    1.706763e+00
  4.478064e-02    1.081688e+00
  6.756343e-02    2.107802e+00
  9.034623e-02    2.358927e+00
  1.131290e-01    1.466726e+00
  1.359118e-01    1.706482e+00
  1.586946e-01    1.650066e+00
  1.814774e-01    1.608305e+00
  2.042602e-01    1.563228e+00
  2.270430e-01    2.426898e+00
  2.498258e-01    4.191390e+00
  2.726086e-01    8.009902e+00
  2.953914e-01    2.336769e+01
  3.181742e-01    5.909574e+01
  3.409570e-01    8.219578e+01
  3.637398e-01    1.136550e+02
  3.865226e-01    1.151176e+02
  4.093054e-01    7.147480e+01
  4.320881e-01    4.239661e+01
  4.548709e-01    2.441459e+01
  4.776537e-01    1.390747e+01
  5.004365e-01    1.113270e+01
  5.232193e-01    1.042133e+01
  5.460021e-01    1.041360e+01
  5.687849e-01    1.103381e+01
  5.915677e-01    1.071967e+01
  6.143505e-01    1.067685e+01
  6.371333e-01    1.065768e+01
  6.599161e-01    9.405463e+00
  6.826989e-01    9.129203e+00
  7.054817e-01    1.000991e+01
  7.282645e-01    9.656445e+00
  7.510473e-01    8.992268e+00
  7.738301e-01    8.833626e+00
  7.966129e-01    8.357727e+00
  8.193956e-01    8.546543e+00
  8.421784e-01    7.813400e+00
  8.649612e-01    7.091480e+00
  8.877440e-01    6.843421e+00
  9.105268e-01    6.851802e+00
  9.333096e-01    6.569515e+00
  9.560924e-01    5.825742e+00
  9.788752e-01    5.483014e+00
  1.001658e+00    5.891331e+00
  1.024441e+00    5.853583e+00
  1.047224e+00    5.537808e+00
  1.070006e+00    4.546832e+00
  1.092789e+00    4.195899e+00
  1.115572e+00    3.959252e+00
  1.138355e+00    3.490434e+00
  1.161138e+00    3.118750e+00
  1.183920e+00    3.097594e+00
  1.206703e+00    3.450687e+00
  1.229486e+00    3.660174e+00
  1.252269e+00    3.583014e+00
  1.275052e+00    3.240233e+00
  1.297834e+00    3.070719e+00
  1.320617e+00    2.150060e+00
  1.343400e+00    2.351861e+00
  1.366183e+00    2.689943e+00
  1.388966e+00    3.320786e+00
  1.411748e+00    4.214581e+00
  1.434531e+00    2.759578e+00
  1.457314e+00    2.652903e+00
  1.480097e+00    2.148297e+00
  1.502879e+00    9.665071e-01
  1.525662e+00    1.230781e+00
  1.548445e+00    1.382738e+00
  1.571228e+00    1.444308e+00
  1.594011e+00    1.540002e+00
  1.616793e+00    1.824493e+00
  1.639576e+00    2.267359e+00
  1.662359e+00    3.558578e+00
  1.685142e+00    1.270957e+01
  1.707925e+00    2.876047e+01
  1.730707e+00    5.414086e+01
  1.753490e+00    8.872467e+01
  1.776273e+00    1.104763e+02
  1.799056e+00    1.053060e+02
  1.821839e+00    7.599651e+01
  1.844621e+00    4.466490e+01
  1.867404e+00    2.242939e+01
  1.890187e+00    8.328458e+00
  1.912970e+00    2.037145e+00
  1.935753e+00    1.490788e+00
  1.958535e+00    1.948240e+00
  1.981318e+00    1.974350e+00
  2.004101e+00    1.805734e+00
  2.026884e+00    1.669780e+00
  2.049667e+00    1.652925e+00
  2.072449e+00    0.000000e+00
  2.095232e+00    4.916703e-01
  2.118015e+00    6.292936e-01
  2.140798e+00    7.742154e-01
  2.163581e+00    1.348239e+00
  2.186363e+00    1.095124e+00
  2.209146e+00    4.401725e-01
  2.231929e+00    1.242615e+00
  2.254712e+00    1.218234e+00
  2.277494e+00    9.657288e-02
  2.300277e+00    1.662902e+00
  2.323060e+00    2.294266e+00
  2.345843e+00    0.000000e+00
  2.368626e+00    5.187988e-04
  2.391408e+00    5.187988e-04
  2.414191e+00    0.000000e+00
  2.436974e+00    8.013153e-01
  2.459757e+00    8.013153e-01
  2.482540e+00    8.013153e-01
  2.505322e+00    1.610413e-01
  2.528105e+00    1.610413e-01
  2.550888e+00    2.064780e-01
  2.573671e+00    2.772735e+00
  2.596454e+00    5.306863e+00
  2.619236e+00    8.126599e+00
  2.642019e+00    9.677588e+00
  2.664802e+00    8.652547e+00
  2.687585e+00    6.420397e+00
  2.710368e+00    4.241955e+00
  2.733150e+00    1.962948e+00
  2.755933e+00    9.375717e-01
  2.778716e+00    8.902819e-01
  2.801499e+00    1.251480e+00
  2.824282e+00    1.422347e+00
  2.847064e+00    1.439820e+00
  2.869847e+00    1.665664e+00
  2.892630e+00    1.751357e+00
  2.915413e+00    0.000000e+00
  2.938196e+00    1.069794e+00
  2.960978e+00    1.181034e+00
  2.983761e+00    1.233268e+00
  3.006544e+00    1.307444e+00
  3.029327e+00    1.446147e+00
  3.052110e+00    1.044426e+00
  3.074892e+00    9.297965e-01
  3.097675e+00    8.172736e-01
  3.120458e+00    5.038273e-01
  3.143241e+00    9.941562e-01
  3.166023e+00    1.473706e+00
  3.188806e+00    3.171613e+00
  3.211589e+00    2.550155e+00
  3.234372e+00    5.664596e+00
  3.257155e+00    1.022365e+01
  3.279937e+00    1.660418e+01
  3.302720e+00    2.260372e+01
  3.325503e+00    2.172231e+01
  3.348286e+00    1.490303e+01
  3.371069e+00    8.508321e+00
  3.393851e+00    4.116535e+00
  3.416634e+00    1.294849e+00
  3.439417e+00    8.939547e-01
  3.462200e+00    1.072152e+00
  3.484983e+00    8.396035e-01
  3.507765e+00    4.605789e-01
  3.530548e+00    7.335620e-01
  3.553331e+00    6.487085e-01
  3.576114e+00    5.708020e-01
  3.598897e+00    2.146903e+00
  3.621679e+00    5.432573e+00
  3.644462e+00    9.733029e+00
  3.667245e+00    1.679072e+01
  3.690028e+00    2.582683e+01
  3.712811e+00    3.110639e+01
  3.735593e+00    3.057115e+01
  3.758376e+00    2.491533e+01
  3.781159e+00    1.688146e+01
  3.803942e+00    1.006096e+01
  3.826725e+00    5.793758e+00
  3.849507e+00    4.222418e+00
  3.872290e+00    6.884891e+00
  3.895073e+00    5.239263e-01
  3.917856e+00    1.199833e+00
  3.940638e+00    1.697163e+00
  3.963421e+00    2.304529e+00
  3.986204e+00    1.180352e+00
  4.008987e+00    1.160843e+00
  4.031770e+00    1.183292e+00
  4.054552e+00    7.453308e-01
  4.077335e+00    5.298377e-01
  4.100118e+00    4.750159e-01
  4.122901e+00    0.000000e+00
  4.145684e+00    1.819612e+00
  4.168466e+00    2.380889e+00
  4.191249e+00    2.857971e+00
  4.214032e+00    3.024531e+00
  4.236815e+00    3.053805e+00
  4.259598e+00    2.980191e+00
  4.282380e+00    2.757689e+00
  4.305163e+00    2.101840e+00
  4.327946e+00    1.030057e+00
  4.350729e+00    7.598199e-01
  4.373512e+00    1.214752e-01
  4.396294e+00    6.565801e-01
  4.419077e+00    6.877245e-01
  4.441860e+00    5.992050e-01
  4.464643e+00    1.124178e+00
  4.487426e+00    1.218582e+00
  4.510208e+00    0.000000e+00
  4.532991e+00    1.706748e+00
  4.555774e+00    1.487756e+00
  4.578557e+00    5.139429e-01
  4.601340e+00    3.781183e-01
  4.624122e+00    5.002973e-01
  4.646905e+00    1.123277e+00
  4.669688e+00    9.431716e-01
  4.692471e+00    8.666191e-01
  4.715253e+00    9.316299e-01
  4.738036e+00    1.019094e+00
  4.760819e+00    8.338121e-01
  4.783602e+00    8.575050e-01
  4.806385e+00    5.240561e-01
  4.829167e+00    2.880689e-01
  4.851950e+00    1.514122e+00
  4.874733e+00    1.674109e+00
  4.897516e+00    1.553249e+00
  4.920299e+00    7.800244e-01
  4.943081e+00    9.893123e-01
  4.965864e+00    1.802685e+00
  4.988647e+00    4.270219e+00
  5.011430e+00    2.432069e+00
  5.034213e+00    1.113399e+00
  5.056995e+00    6.817977e-01
  5.079778e+00    1.934466e+00
  5.102561e+00    3.900605e+00
  5.125344e+00    2.178351e+00
  5.148127e+00    2.256385e+00
  5.170909e+00    2.210805e+00
  5.193692e+00    9.662917e-01
  5.216475e+00    1.850911e+00
  5.239258e+00    2.943120e+00
  5.262041e+00    1.005040e+00
  5.284823e+00    8.191422e-01
  5.307606e+00    9.112686e-01
  5.330389e+00    8.502104e-01
  5.353172e+00    6.603209e-01
  5.375955e+00    2.494812e-03
  5.398737e+00    8.150917e-01
  5.421520e+00    1.331455e+00
  5.444303e+00    2.110123e+00
  5.467086e+00    1.604788e+00
  5.489869e+00    1.488729e+00
  5.512651e+00    0.000000e+00
  5.535434e+00    1.252810e+00
  5.558217e+00    1.272399e+00
  5.581000e+00    1.258389e+00
  5.603782e+00    9.490074e-01
  5.626565e+00    8.783077e-01
  5.649348e+00    7.640172e-01
  5.672131e+00    1.489064e+00
  5.694914e+00    1.573665e+00
  5.717696e+00    0.000000e+00
  5.740479e+00    1.053271e+01
  5.763262e+00    3.916981e+01
  5.786045e+00    1.277106e+01
  5.808828e+00    6.287520e-01
  5.831610e+00    5.601084e-01
  5.854393e+00    6.458585e-01
  5.877176e+00    8.967570e-01
  5.899959e+00    1.150132e+00
  5.922742e+00    1.624786e+00
  5.945524e+00    1.073835e+00
  5.968307e+00    9.625480e-01
  5.991090e+00    9.031509e-01
  6.013873e+00    7.194782e-01
  6.036656e+00    8.404604e-01
  6.059438e+00    1.382519e+00
  6.082221e+00    8.361803e-01
  6.105004e+00    7.812114e-01
  6.127787e+00    1.002192e+00
  6.150570e+00    1.907817e+00
  6.173352e+00    2.002633e+00
  6.196135e+00    1.857730e+00
  6.218918e+00    6.576552e-01
  6.241701e+00    4.608470e-01
  6.264484e+00    4.255821e-01
  6.287266e+00    6.466777e-01
  6.310049e+00    7.094712e-01
  6.332832e+00    7.478333e-01
  6.355615e+00    4.541745e-01
  6.378397e+00    6.242554e-01
  6.401180e+00    1.086923e+00
  6.423963e+00    1.374650e+00
  6.446746e+00    1.280327e+00
  6.469529e+00    1.045675e+00
  6.492311e+00    9.362124e-01
  6.515094e+00    8.880936e-01
  6.537877e+00    7.771965e-01
  6.560660e+00    1.861906e+00
  6.583443e+00    1.909614e+00
  6.606225e+00    1.628981e+00
  6.629008e+00    2.573280e+00
  6.651791e+00    1.606832e+00
  6.674574e+00    1.243037e+00
  6.697357e+00    1.140857e+00
  6.720139e+00    1.167722e+00
  6.742922e+00    1.211112e+00
  6.765705e+00    1.470613e+00
  6.788488e+00    1.099580e+00
  6.811271e+00    5.626587e-01
  6.834053e+00    1.532869e+00
  6.856836e+00    1.707663e+00
  6.879619e+00    7.857956e-01
  6.902402e+00    4.908636e-01
  6.925185e+00    8.605117e-01
  6.947967e+00    1.243994e+00
  6.970750e+00    1.322354e+00
  6.993533e+00    1.683111e+00
  7.016316e+00    1.581476e+00
  7.039099e+00    1.337300e+00
  7.061881e+00    1.014824e+00
  7.084664e+00    1.211608e+00
  7.107447e+00    1.707946e+00
  7.130230e+00    1.293824e+00
  7.153013e+00    9.192832e-01
  7.175795e+00    1.442059e+00
  7.198578e+00    1.425091e+00
  7.221361e+00    1.284778e+00
  7.244144e+00    8.163016e-01
  7.266926e+00    9.330085e-01
  7.289709e+00    9.441999e-01
  7.312492e+00    4.007263e-01
  7.335275e+00    2.012308e+00
  7.358058e+00    1.791667e+00
  7.380840e+00    1.290309e+00
  7.403623e+00    1.426035e+00
  7.426406e+00    1.344296e+00
  7.449189e+00    1.177717e+00
  7.471972e+00    7.351418e-01
  7.494754e+00    7.418973e-01
  7.517537e+00    1.050500e+00
  7.540320e+00    6.195121e-01
  7.563103e+00    5.833686e-01
  7.585886e+00    9.654780e-01
  7.608668e+00    1.491702e+00
  7.631451e+00    1.271778e+00
  7.654234e+00    1.768156e+00
  7.677017e+00    1.627989e+00
  7.699800e+00    1.385788e+00
  7.722582e+00    1.036480e+00
  7.745365e+00    1.281732e+00
  7.768148e+00    1.254005e+00
  7.790931e+00    1.278705e+00
  7.813714e+00    1.420254e+00
  7.836496e+00    1.209607e+00
  7.859279e+00    1.049087e+00
  7.882062e+00    1.013530e+00
  7.904845e+00    6.617113e-01
  7.927628e+00    6.887152e-01
  7.950410e+00    1.208540e+00
  7.973193e+00    1.451259e+00
  7.995976e+00    1.449683e+00
  8.018759e+00    1.104536e+00
  8.041541e+00    2.158810e+01
  8.064324e+00    4.289918e+01
  8.087107e+00    3.657386e+00
  8.109890e+00    1.529311e+00
  8.132673e+00    1.275702e+00
  8.155455e+00    3.795836e-01
  8.178238e+00    1.326265e+00
  8.201021e+00    1.220424e+00
  8.223804e+00    4.308853e-01
  8.246587e+00    1.828324e+00
  8.269369e+00    1.913031e+00
  8.292152e+00    1.963402e+00
  8.314935e+00    1.114212e+00
  8.337718e+00    1.805890e+00
  8.360501e+00    2.271012e+00
  8.383283e+00    1.654361e+00
  8.406066e+00    8.800231e-01
  8.428849e+00    1.239654e+00
  8.451632e+00    1.319530e+00
  8.474415e+00    1.062955e+00
  8.497197e+00    8.878919e-01
  8.519980e+00    6.480604e-01
  8.542763e+00    1.958650e+00
  8.565546e+00    1.785798e+00
  8.588329e+00    1.407574e+00
  8.611111e+00    1.488112e+00
  8.633894e+00    1.425615e+00
  8.656677e+00    1.536609e+00
  8.679460e+00    1.696280e+00
  8.702243e+00    1.314200e+00
  8.725025e+00    9.276792e-01
  8.747808e+00    7.849542e-01
  8.770591e+00    1.397947e+00
  8.793374e+00    1.573790e+00
  8.816156e+00    1.797735e+00
  8.838939e+00    8.547976e-01
  8.861722e+00    7.664355e-01
  8.884505e+00    1.463538e+00
  8.907288e+00    1.033903e+00
  8.930070e+00    9.906859e-01
  8.952853e+00    1.383899e+00
  8.975636e+00    1.587858e+00
  8.998419e+00    1.223341e+00
  9.021202e+00    3.764659e-01
  9.043984e+00    8.025638e-01
  9.066767e+00    6.370827e-01
  9.089550e+00    8.073418e-01
  9.112333e+00    8.034782e-01
  9.135116e+00    1.410062e+00
  9.157898e+00    2.448316e+00
  9.180681e+00    8.806592e-01
  9.203464e+00    1.699116e+00
  9.226247e+00    1.641399e+00
  9.249030e+00    1.378147e+00
  9.271812e+00    1.309455e+00
  9.294595e+00    1.546358e+00
  9.317378e+00    1.636285e+00
  9.340161e+00    1.287646e+00
  9.362944e+00    1.426037e+00
  9.385726e+00    1.158186e+00
  9.408509e+00    8.364170e-01
  9.431292e+00    7.145895e-01
  9.454075e+00    9.599680e-01
  9.476858e+00    1.049552e+00
  9.499640e+00    1.039979e+00
  9.522423e+00    6.199065e-01
  9.545206e+00    3.255960e-01
  9.567989e+00    2.357317e+00
  9.590772e+00    2.049185e+00
  9.613554e+00    1.836751e+00
  9.636337e+00    2.015519e+00
  9.659120e+00    1.841692e+00
  9.681903e+00    1.512549e+00
  9.704685e+00    7.676578e-01
  9.727468e+00    7.247968e-01
  9.750251e+00    7.466276e-01
  9.773034e+00    7.542756e-01
  9.795817e+00    6.767758e-01
  9.818599e+00    9.177517e-01
  9.841382e+00    9.388823e-01
  9.864165e+00    9.704083e-01
  9.886948e+00    1.080074e+00
  9.909731e+00    1.183449e+00
  9.932513e+00    1.251220e+00
  9.955296e+00    1.116897e+00
  9.978079e+00    1.167125e+00
  1.000086e+01    9.433681e-01
  1.002364e+01    6.937532e-01
  1.004643e+01    1.251536e+00
  1.006921e+01    1.572258e+00
  1.009199e+01    1.790328e+00
  1.011478e+01    1.661680e+00
  1.013756e+01    1.134717e+00
  1.016034e+01    1.093052e+00
  1.018312e+01    1.150601e+00
  1.020591e+01    1.168474e+00
  1.022869e+01    1.534230e+00
  1.025147e+01    1.083681e+00
  1.027426e+01    5.208608e-01
  1.029704e+01    1.849505e+00
  1.031982e+01    1.276062e+00
  1.034260e+01    1.468309e+00
  1.036539e+01    5.431365e+00
  1.038817e+01    2.519141e+00
  1.041095e+01    9.073437e-01
  1.043373e+01    1.349343e+00
  1.045652e+01    1.230279e+00
  1.047930e+01    9.185467e-01
  1.050208e+01    8.664560e-01
  1.052487e+01    8.164871e-01
  1.054765e+01    1.015923e+00
  1.057043e+01    1.248204e+00
  1.059321e+01    1.255907e+00
  1.061600e+01    1.115621e+00
  1.063878e+01    1.110116e+00
  1.066156e+01    1.447380e+00
  1.068435e+01    1.334607e+00
  1.070713e+01    1.147974e+00
  1.072991e+01    1.043618e+00
  1.075269e+01    1.024716e+00
  1.077548e+01    1.037194e+00
  1.079826e+01    1.230102e+00
  1.082104e+01    1.345263e+00
  1.084383e+01    1.089686e+00
  1.086661e+01    1.610502e+00
  1.088939e+01    1.457140e+00
  1.091217e+01    1.673380e+00
  1.093496e+01    1.616108e+00
  1.095774e+01    1.292714e+00
  1.098052e+01    9.806825e-01
  1.100330e+01    9.955610e-01
  1.102609e+01    8.404773e-01
  1.104887e+01    1.026567e+00
  1.107165e+01    7.536717e-01
  1.109444e+01    6.892155e-01
  1.111722e+01    9.754024e-01
  1.114000e+01    8.636925e-01
  1.116278e+01    7.732361e-01
  1.118557e+01    1.122971e+00
  1.120835e+01    1.604655e+00
  1.123113e+01    1.333426e+00
  1.125392e+01    1.202897e+00
  1.127670e+01    8.925502e-01
  1.129948e+01    1.092100e+00
  1.132226e+01    8.845789e-01
  1.134505e+01    1.141084e+00
  1.136783e+01    1.375734e+00
  1.139061e+01    1.451689e+00
  1.141340e+01    1.776829e+00
  1.143618e+01    1.469492e+00
  1.145896e+01    1.565958e+00
  1.148174e+01    1.363432e+00
  1.150453e+01    8.251087e-01
  1.152731e+01    1.192362e+00
  1.155009e+01    9.371108e-01
  1.157287e+01    9.979236e-01
  1.159566e+01    1.358354e+00
  1.161844e+01    1.224461e+00
  1.164122e+01    9.956929e-01
  1.166401e+01    1.326131e+00
  1.168679e+01    1.191651e+00
  1.170957e+01    1.220049e+00
  1.173235e+01    1.093329e+00
  1.175514e+01    1.141966e+00
  1.177792e+01    1.637755e+00
  1.180070e+01    1.090055e+00
  1.182349e+01    1.162697e+00
  1.184627e+01    1.088000e+00
  1.186905e+01    8.544815e-01
  1.189183e+01    8.025848e-01
  1.191462e+01    1.156912e+00
  1.193740e+01    1.162678e+00
  1.196018e+01    1.137261e+00
  1.198296e+01    1.320935e+00
  1.200575e+01    1.265197e+00
  1.202853e+01    9.009359e-01
  1.205131e+01    1.091626e+00
  1.207410e+01    1.400586e+00
  1.209688e+01    1.238711e+00
  1.211966e+01    1.251274e+00
  1.214244e+01    1.318077e+00
  1.216523e+01    1.317338e+00
  1.218801e+01    6.697033e-01
  1.221079e+01    9.804330e-01
  1.223358e+01    1.562931e+00
  1.225636e+01    1.243987e+00
  1.227914e+01    1.306662e+00
  1.230192e+01    1.102568e+00
  1.232471e+01    1.016379e+00
  1.234749e+01    7.939446e-01
  1.237027e+01    7.738664e-01
  1.239306e+01    1.068319e+00
  1.241584e+01    8.768163e-01
  1.243862e+01    9.222609e-01
  1.246140e+01    8.013150e-01
  1.248419e+01    8.176617e-01
  1.250697e+01    9.199014e-01
  1.252975e+01    1.041646e+00
  1.255253e+01    1.098178e+00
  1.257532e+01    1.147241e+00
  1.259810e+01    1.093246e+00
  1.262088e+01    9.096755e-01
  1.264367e+01    1.091648e+00
  1.266645e+01    1.086411e+00
  1.268923e+01    9.772142e-01
  1.271201e+01    1.440642e+00
  1.273480e+01    1.622909e+00
  1.275758e+01    1.609780e+00
  1.278036e+01    1.315976e+00
  1.280315e+01    1.188551e+00
  1.282593e+01    9.738596e-01
  1.284871e+01    9.318867e-01
  1.287149e+01    9.917267e-01
  1.289428e+01    1.206137e+00
  1.291706e+01    1.023706e+00
  1.293984e+01    9.297714e-01
  1.296263e+01    1.385507e+00
  1.298541e+01    1.126354e+00
  1.300819e+01    1.095184e+00
  1.303097e+01    1.344957e+00
  1.305376e+01    1.076131e+00
  1.307654e+01    1.085478e+00
  1.309932e+01    1.140815e+00
  1.312210e+01    1.153720e+00
  1.314489e+01    1.345160e+00
  1.316767e+01    1.726845e+00
  1.319045e+01    1.133502e+00
  1.321324e+01    1.107578e+00
  1.323602e+01    8.215615e-01
  1.325880e+01    1.033721e+00
  1.328158e+01    1.212906e+00
  1.330437e+01    1.209059e+00
  1.332715e+01    1.342267e+00
  1.334993e+01    1.277323e+00
  1.337272e+01    1.219089e+00
  1.339550e+01    1.476031e+00
  1.341828e+01    1.054747e+00
  1.344106e+01    1.155277e+00
  1.346385e+01    1.192405e+00
  1.348663e+01    1.337662e+00
  1.350941e+01    1.099379e+00
  1.353219e+01    1.158044e+00
  1.355498e+01    1.411508e+00
  1.357776e+01    1.396671e+00
  1.360054e+01    1.407038e+00
  1.362333e+01    1.617547e+00
  1.364611e+01    1.228978e+00
  1.366889e+01    1.184384e+00
  1.369167e+01    1.262630e+00
  1.371446e+01    1.360677e+00
  1.373724e+01    1.111295e+00
  1.376002e+01    1.183211e+00
  1.378281e+01    1.136572e+00
  1.380559e+01    1.138353e+00
  1.382837e+01    9.278970e-01
  1.385115e+01    1.127189e+00
  1.387394e+01    9.236175e-01
  1.389672e+01    1.157392e+00
  1.391950e+01    1.064368e+00
  1.394229e+01    9.122755e-01
  1.396507e+01    9.170567e-01
  1.398785e+01    1.188407e+00
  1.401063e+01    1.306811e+00
  1.403342e+01    1.306536e+00
  1.405620e+01    1.236426e+00
  1.407898e+01    1.430153e+00
  1.410176e+01    1.129486e+00
  1.412455e+01    1.053563e+00
  1.414733e+01    1.392113e+00
  1.417011e+01    1.068945e+00
  1.419290e+01    9.866541e-01
  1.421568e+01    1.141843e+00
  1.423846e+01    1.351414e+00
  1.426124e+01    1.239224e+00
  1.428403e+01    1.160436e+00
  1.430681e+01    1.131646e+00
  1.432959e+01    1.149729e+00
  1.435238e+01    1.322815e+00
  1.437516e+01    1.375344e+00
  1.439794e+01    1.096057e+00
  1.442072e+01    1.203127e+00
  1.444351e+01    1.212381e+00
  1.446629e+01    1.411982e+00
  1.448907e+01    1.590988e+00
  1.451186e+01    1.397014e+00
  1.453464e+01    1.425646e+00
  1.455742e+01    1.517336e+00
  1.458020e+01    1.219947e+00
  1.460299e+01    1.374834e+00
  1.462577e+01    1.525154e+00
  1.464855e+01    1.564404e+00
  1.467133e+01    1.496854e+00
  1.469412e+01    1.433012e+00
  1.471690e+01    1.247802e+00
  1.473968e+01    1.482559e+00
  1.476247e+01    1.277816e+00
  1.478525e+01    1.281591e+00
  1.480803e+01    1.431832e+00
  1.483081e+01    1.549673e+00
  1.485360e+01    1.690463e+00
  1.487638e+01    1.471720e+00
  1.489916e+01    1.151228e+00
  1.492195e+01    1.082126e+00
  1.494473e+01    1.429963e+00
  1.496751e+01    1.428405e+00
  1.499029e+01    1.588995e+00
  1.501308e+01    1.440043e+00
  1.503586e+01    1.166721e+00
  1.505864e+01    1.151179e+00
  1.508142e+01    1.221471e+00
  1.510421e+01    1.344693e+00
  1.512699e+01    1.314463e+00
  1.514977e+01    1.157558e+00
  1.517256e+01    1.018223e+00
  1.519534e+01    1.388804e+00
  1.521812e+01    1.270803e+00
  1.524090e+01    1.135546e+00
  1.526369e+01    9.493793e-01
  1.528647e+01    1.223216e+00
  1.530925e+01    1.342262e+00
  1.533204e+01    1.386053e+00
  1.535482e+01    1.255617e+00
  1.537760e+01    1.220694e+00
  1.540038e+01    1.296451e+00
  1.542317e+01    1.315639e+00
  1.544595e+01    1.448087e+00
  1.546873e+01    1.329004e+00
  1.549152e+01    1.315150e+00
  1.551430e+01    1.458136e+00
  1.553708e+01    1.407358e+00
  1.555986e+01    1.201342e+00
  1.558265e+01    1.192290e+00
  1.560543e+01    1.274608e+00
  1.562821e+01    1.439255e+00
  1.565099e+01    1.325923e+00
  1.567378e+01    1.263716e+00
  1.569656e+01    1.024866e+00
  1.571934e+01    1.259530e+00
  1.574213e+01    1.232254e+00
  1.576491e+01    1.303568e+00
  1.578769e+01    1.044897e+00
  1.581047e+01    9.330146e-01
  1.583326e+01    1.120266e+00
  1.585604e+01    1.374125e+00
  1.587882e+01    1.224372e+00
  1.590161e+01    9.993410e-01
  1.592439e+01    1.081944e+00
  1.594717e+01    1.172056e+00
  1.596995e+01    1.019110e+00
  1.599274e+01    1.268067e+00
  1.601552e+01    1.286209e+00
  1.603830e+01    1.135864e+00
  1.606109e+01    1.416000e+00
  1.608387e+01    1.410495e+00
  1.610665e+01    1.289516e+00
  1.612943e+01    1.193054e+00
  1.615222e+01    1.167080e+00
  1.617500e+01    1.249104e+00
  1.619778e+01    1.236335e+00
  1.622056e+01    1.229158e+00
  1.624335e+01    1.181448e+00
  1.626613e+01    9.538862e-01
  1.628891e+01    1.260937e+00
  1.631170e+01    1.307477e+00
  1.633448e+01    1.330976e+00
  1.635726e+01    1.112742e+00
  1.638004e+01    1.159264e+00
  1.640283e+01    1.086901e+00
  1.642561e+01    1.099604e+00
  1.644839e+01    1.299052e+00
  1.647118e+01    1.385582e+00
  1.649396e+01    1.280249e+00
  1.651674e+01    1.539869e+00
  1.653952e+01    1.417511e+00
  1.656231e+01    1.338757e+00
  1.658509e+01    1.108740e+00
  1.660787e+01    1.472252e+00
  1.663065e+01    1.581783e+00
  1.665344e+01    1.272847e+00
  1.667622e+01    1.173683e+00
  1.669900e+01    1.199901e+00
  1.672179e+01    1.280977e+00
  1.674457e+01    1.385886e+00
  1.676735e+01    1.282803e+00
  1.679013e+01    1.256467e+00
  1.681292e+01    1.295997e+00
  1.683570e+01    1.231992e+00
  1.685848e+01    1.212811e+00
  1.688127e+01    1.205961e+00
  1.690405e+01    1.089828e+00
  1.692683e+01    1.007839e+00
  1.694961e+01    1.206203e+00
  1.697240e+01    1.228416e+00
  1.699518e+01    1.237112e+00
  1.701796e+01    1.244734e+00
  1.704075e+01    1.278044e+00
  1.706353e+01    1.289303e+00
  1.708631e+01    1.030203e+00
  1.710909e+01    1.063307e+00
  1.713188e+01    1.141196e+00
  1.715466e+01    1.410244e+00
  1.717744e+01    1.325624e+00
  1.720022e+01    1.338063e+00
  1.722301e+01    1.167037e+00
  1.724579e+01    1.294955e+00
  1.726857e+01    1.254423e+00
  1.729136e+01    1.031152e+00
  1.731414e+01    1.209031e+00
  1.733692e+01    1.310359e+00
  1.735970e+01    1.122878e+00
  1.738249e+01    1.145857e+00
  1.740527e+01    1.440470e+00
  1.742805e+01    1.265427e+00
  1.745084e+01    1.543614e+00
  1.747362e+01    1.461352e+00
  1.749640e+01    1.456970e+00
  1.751918e+01    1.439365e+00
  1.754197e+01    1.331613e+00
  1.756475e+01    1.233130e+00
  1.758753e+01    1.574304e+00
  1.761032e+01    1.339995e+00
  1.763310e+01    1.171792e+00
  1.765588e+01    1.063609e+00
  1.767866e+01    1.118303e+00
  1.770145e+01    1.236829e+00
  1.772423e+01    1.324405e+00
  1.774701e+01    1.538267e+00
  1.776979e+01    1.542154e+00
  1.779258e+01    1.205636e+00
  1.781536e+01    1.330530e+00
  1.783814e+01    1.215009e+00
  1.786093e+01    1.215864e+00
  1.788371e+01    1.394434e+00
  1.790649e+01    1.250788e+00
  1.792927e+01    1.448366e+00
  1.795206e+01    1.400464e+00
  1.797484e+01    1.219262e+00
  1.799762e+01    1.150748e+00
  1.802041e+01    1.268032e+00
  1.804319e+01    1.201199e+00
  1.806597e+01    1.224980e+00
  1.808875e+01    1.217121e+00
  1.811154e+01    1.270249e+00
  1.813432e+01    1.386044e+00
  1.815710e+01    1.239491e+00
  1.817989e+01    1.166108e+00
  1.820267e+01    1.226937e+00
  1.822545e+01    1.281494e+00
  1.824823e+01    1.156253e+00
  1.827102e+01    1.122339e+00
  1.829380e+01    1.026042e+00
  1.831658e+01    1.063519e+00
  1.833936e+01    1.030442e+00
  1.836215e+01    1.261294e+00
  1.838493e+01    1.218947e+00
  1.840771e+01    1.185861e+00
  1.843050e+01    1.131645e+00
  1.845328e+01    1.129051e+00
  1.847606e+01    1.157072e+00
  1.849884e+01    1.290600e+00
  1.852163e+01    1.274293e+00
  1.854441e+01    1.218633e+00
  1.856719e+01    1.151183e+00
  1.858998e+01    9.641470e-01
  1.861276e+01    1.096401e+00
  1.863554e+01    1.305890e+00
  1.865832e+01    1.174487e+00
  1.868111e+01    1.290539e+00
  1.870389e+01    1.107365e+00
  1.872667e+01    1.143344e+00
  1.874945e+01    1.079779e+00
  1.877224e+01    1.030962e+00
  1.879502e+01    1.185212e+00
  1.881780e+01    1.323936e+00
  1.884059e+01    1.162033e+00
  1.886337e+01    1.280119e+00
  1.888615e+01    1.197930e+00
  1.890893e+01    1.098648e+00
  1.893172e+01    1.191492e+00
  1.895450e+01    1.022233e+00
  1.897728e+01    1.219278e+00
  1.900007e+01    1.241327e+00
  1.902285e+01    1.338814e+00
  1.904563e+01    1.113365e+00
  1.906841e+01    1.228637e+00
  1.909120e+01    1.239408e+00
  1.911398e+01    1.162773e+00
  1.913676e+01    1.053267e+00
  1.915955e+01    1.083726e+00
  1.918233e+01    1.053706e+00
  1.920511e+01    1.186734e+00
  1.922789e+01    1.063413e+00
  1.925068e+01    1.152463e+00
  1.927346e+01    1.232710e+00
  1.929624e+01    1.147164e+00
  1.931902e+01    1.169049e+00
  1.934181e+01    1.136493e+00
  1.936459e+01    1.115096e+00
  1.938737e+01    1.203082e+00
  1.941016e+01    1.085659e+00
  1.943294e+01    1.061642e+00
  1.945572e+01    1.090351e+00
  1.947850e+01    1.106210e+00
  1.950129e+01    1.215078e+00
  1.952407e+01    1.031715e+00
  1.954685e+01    1.277796e+00
  1.956964e+01    1.154656e+00
  1.959242e+01    1.247407e+00
  1.961520e+01    1.123979e+00
  1.963798e+01    1.200610e+00
  1.966077e+01    1.192171e+00
  1.968355e+01    1.141802e+00
  1.970633e+01    1.142219e+00
  1.972912e+01    1.016132e+00
  1.975190e+01    1.217642e+00
  1.977468e+01    1.241812e+00
  1.979746e+01    1.165858e+00
  1.982025e+01    1.158620e+00
  1.984303e+01    1.156193e+00
  1.986581e+01    1.205166e+00
  1.988859e+01    1.168973e+00
  1.991138e+01    1.248232e+00
  1.993416e+01    1.223962e+00
  1.995694e+01    1.175430e+00
  1.997973e+01    1.288315e+00
  2.000251e+01    1.151495e+00
  2.002529e+01    1.160629e+00
  2.004807e+01    1.200224e+00
  2.007086e+01    1.191953e+00
  2.009364e+01    9.894121e-01
  2.011642e+01    1.046555e+00
  2.013921e+01    1.206574e+00
  2.016199e+01    1.157636e+00
  2.018477e+01    1.157143e+00
  2.020755e+01    1.206348e+00
  2.023034e+01    1.184020e+00
  2.025312e+01    1.245375e+00
  2.027590e+01    1.138166e+00
  2.029868e+01    1.199473e+00
  2.032147e+01    1.147276e+00
  2.034425e+01    1.279761e+00
  2.036703e+01    1.200216e+00
  2.038982e+01    1.278408e+00
  2.041260e+01    1.138778e+00
  2.043538e+01    1.096232e+00
  2.045816e+01    1.119657e+00
  2.048095e+01    1.131615e+00
  2.050373e+01    1.237678e+00
  2.052651e+01    1.136257e+00
  2.054930e+01    1.111893e+00
  2.057208e+01    1.275412e+00
  2.059486e+01    1.223575e+00
  2.061764e+01    1.220647e+00
  2.064043e+01    1.211077e+00
  2.066321e+01    1.188419e+00
  2.068599e+01    1.239224e+00
  2.070878e+01    1.257985e+00
  2.073156e+01    1.088189e+00
  2.075434e+01    1.107987e+00
  2.077712e+01    1.117250e+00
  2.079991e+01    1.265177e+00
  2.082269e+01    1.290816e+00
  2.084547e+01    1.376028e+00
  2.086825e+01    1.235000e+00
  2.089104e+01    1.403395e+00
  2.091382e+01    1.236823e+00
  2.093660e+01    1.050506e+00
  2.095939e+01    1.218572e+00
  2.098217e+01    1.042472e+00
  2.100495e+01    1.029589e+00
  2.102773e+01    1.057816e+00
  2.105052e+01    1.069227e+00
  2.107330e+01    1.190988e+00
  2.109608e+01    1.124365e+00
  2.111887e+01    1.134562e+00
  2.114165e+01    1.108878e+00
  2.116443e+01    1.159651e+00
  2.118721e+01    1.156745e+00
  2.121000e+01    1.054664e+00
  2.123278e+01    1.011648e+00
  2.125556e+01    1.114608e+00
  2.127835e+01    1.248174e+00
  2.130113e+01    1.164136e+00
  2.132391e+01    1.094040e+00
  2.134669e+01    1.249487e+00
  2.136948e+01    1.216876e+00
  2.139226e+01    1.241327e+00
  2.141504e+01    1.105561e+00
  2.143782e+01    1.128729e+00
  2.146061e+01    1.034809e+00
  2.148339e+01    1.103139e+00
  2.150617e+01    1.040301e+00
  2.152896e+01    1.034585e+00
  2.155174e+01    1.201343e+00
  2.157452e+01    1.044783e+00
  2.159730e+01    1.134799e+00
  2.162009e+01    1.117473e+00
  2.164287e+01    1.203568e+00
  2.166565e+01    1.049219e+00
  2.168844e+01    1.039196e+00
  2.171122e+01    1.153054e+00
  2.173400e+01    1.147120e+00
  2.175678e+01    1.116763e+00
  2.177957e+01    1.083385e+00
  2.180235e+01    1.153758e+00
  2.182513e+01    1.143131e+00
  2.184791e+01    1.035704e+00
  2.187070e+01    1.106751e+00
  2.189348e+01    1.155051e+00
  2.191626e+01    1.074934e+00
  2.193905e+01    1.056612e+00
  2.196183e+01    1.091391e+00
  2.198461e+01    1.122180e+00
  2.200739e+01    1.033616e+00
  2.203018e+01    1.176125e+00
  2.205296e+01    1.194672e+00
  2.207574e+01    1.033171e+00
  2.209853e+01    1.223344e+00
  2.212131e+01    1.174286e+00
  2.214409e+01    1.124536e+00
  2.216687e+01    1.119920e+00
  2.218966e+01    1.123471e+00
  2.221244e+01    1.161590e+00
  2.223522e+01    1.019051e+00
  2.225801e+01    1.089990e+00
  2.228079e+01    1.174698e+00
  2.230357e+01    1.211734e+00
  2.232635e+01    1.170006e+00
  2.234914e+01    1.085620e+00
  2.237192e+01    1.058567e+00
  2.239470e+01    1.110770e+00
  2.241748e+01    1.060445e+00
  2.244027e+01    1.105862e+00
  2.246305e+01    1.100355e+00
  2.248583e+01    1.254253e+00
  2.250862e+01    1.172158e+00
  2.253140e+01    1.023405e+00
  2.255418e+01    1.181576e+00
  2.257696e+01    1.190203e+00
  2.259975e+01    1.104648e+00
  2.262253e+01    1.153567e+00
  2.264531e+01    1.116134e+00
  2.266810e+01    1.015132e+00
  2.269088e+01    1.011345e+00
  2.271366e+01    1.027638e+00
  2.273644e+01    1.103005e+00
  2.275923e+01    1.169785e+00
  2.278201e+01    1.111985e+00
  2.280479e+01    1.029420e+00
  2.282758e+01    1.062355e+00
  2.285036e+01    1.066821e+00
  2.287314e+01    1.107909e+00
  2.289592e+01    1.039424e+00
  2.291871e+01    1.049962e+00
  2.294149e+01    1.114448e+00
  2.296427e+01    1.063581e+00
  2.298705e+01    1.149469e+00
  2.300984e+01    1.160220e+00
  2.303262e+01    1.104279e+00
  2.305540e+01    1.093723e+00
  2.307819e+01    1.051364e+00
  2.310097e+01    1.043819e+00
  2.312375e+01    9.839414e-01
  2.314653e+01    1.096281e+00
  2.316932e+01    1.082579e+00
  2.319210e+01    1.111747e+00
  2.321488e+01    1.050158e+00
  2.323767e+01    1.090758e+00
  2.326045e+01    1.130981e+00
  2.328323e+01    1.139264e+00
  2.330601e+01    1.098212e+00
  2.332880e+01    1.150786e+00
  2.335158e+01    1.107007e+00
  2.337436e+01    1.047247e+00
  2.339714e+01    1.053688e+00
  2.341993e+01    1.091584e+00
  2.344271e+01    1.162472e+00
  2.346549e+01    1.124221e+00
  2.348828e+01    1.091389e+00
  2.351106e+01    1.231206e+00
  2.353384e+01    1.312718e+00
  2.355662e+01    1.224777e+00
  2.357941e+01    1.099200e+00
  2.360219e+01    1.077720e+00
  2.362497e+01    1.105989e+00
  2.364776e+01    1.193970e+00
  2.367054e+01    1.088113e+00
  2.369332e+01    1.057374e+00
  2.371610e+01    1.062068e+00
  2.373889e+01    1.137473e+00
  2.376167e+01    1.032307e+00
  2.378445e+01    1.067307e+00
  2.380724e+01    1.160562e+00
  2.383002e+01    1.061394e+00
  2.385280e+01    1.033583e+00
  2.387558e+01    1.129146e+00
  2.389837e+01    1.096225e+00
  2.392115e+01    1.213533e+00
  2.394393e+01    1.138414e+00
  2.396671e+01    1.117045e+00
  2.398950e+01    1.071292e+00
  2.401228e+01    1.139885e+00
  2.403506e+01    1.173040e+00
  2.405785e+01    1.119958e+00
  2.408063e+01    1.131683e+00
  2.410341e+01    1.017665e+00
  2.412619e+01    1.132903e+00
  2.414898e+01    1.182602e+00
  2.417176e+01    1.254492e+00
  2.419454e+01    1.116663e+00
  2.421733e+01    1.157350e+00
  2.424011e+01    1.161527e+00
  2.426289e+01    1.042507e+00
  2.428567e+01    1.033624e+00
  2.430846e+01    1.178286e+00
  2.433124e+01    1.074606e+00
  2.435402e+01    1.036514e+00
  2.437681e+01    1.080894e+00
  2.439959e+01    1.099343e+00
  2.442237e+01    1.181481e+00
  2.444515e+01    1.165429e+00
  2.446794e+01    1.016984e+00
  2.449072e+01    1.055232e+00
  2.451350e+01    1.089303e+00
  2.453628e+01    1.107190e+00
  2.455907e+01    1.150854e+00
  2.458185e+01    1.081606e+00
  2.460463e+01    1.056781e+00
  2.462742e+01    1.043230e+00
  2.465020e+01    1.074241e+00
  2.467298e+01    1.104167e+00
  2.469576e+01    1.034130e+00
  2.471855e+01    1.058512e+00
  2.474133e+01    9.985437e-01
  2.476411e+01    1.071843e+00
  2.478690e+01    1.166977e+00
  2.480968e+01    1.190306e+00
  2.483246e+01    1.105849e+00
  2.485524e+01    1.074601e+00
  2.487803e+01    1.081958e+00
  2.490081e+01    1.176064e+00
  2.492359e+01    1.205916e+00
  2.494637e+01    1.114797e+00
  2.496916e+01    1.147790e+00
  2.499194e+01    1.166719e+00
  2.501472e+01    1.150033e+00
  2.503751e+01    1.135104e+00
  2.506029e+01    1.079219e+00
  2.508307e+01    1.225360e+00
  2.510585e+01    1.149718e+00
  2.512864e+01    1.036637e+00
  2.515142e+01    1.108497e+00
  2.517420e+01    1.129606e+00
  2.519699e+01    1.001988e+00
  2.521977e+01    1.061301e+00
  2.524255e+01    1.157051e+00
  2.526533e+01    1.164114e+00
  2.528812e+01    1.137437e+00
  2.531090e+01    1.112950e+00
  2.533368e+01    1.066311e+00
  2.535647e+01    1.108137e+00
  2.537925e+01    1.094944e+00
  2.540203e+01    1.135937e+00
  2.542481e+01    1.143933e+00
  2.544760e+01    1.153552e+00
  2.547038e+01    1.067202e+00
  2.549316e+01    1.155482e+00
  2.551594e+01    1.126576e+00
  2.553873e+01    1.184969e+00
  2.556151e+01    1.138717e+00
  2.558429e+01    1.076405e+00
  2.560708e+01    1.090413e+00
  2.562986e+01    1.172284e+00
  2.565264e+01    1.170274e+00
  2.567542e+01    1.074309e+00
  2.569821e+01    1.152560e+00
  2.572099e+01    1.147648e+00
  2.574377e+01    1.090585e+00
  2.576656e+01    1.150923e+00
  2.578934e+01    1.162731e+00
  2.581212e+01    1.152341e+00
  2.583490e+01    1.100850e+00
  2.585769e+01    1.147961e+00
  2.588047e+01    1.134032e+00
  2.590325e+01    1.121980e+00
  2.592604e+01    1.148558e+00
  2.594882e+01    1.094117e+00
  2.597160e+01    1.083265e+00
  2.599438e+01    1.188190e+00
  2.601717e+01    1.238256e+00
  2.603995e+01    1.085490e+00
  2.606273e+01    1.109383e+00
  2.608551e+01    1.144354e+00
  2.610830e+01    1.266876e+00
  2.613108e+01    1.103815e+00
  2.615386e+01    1.083768e+00
  2.617665e+01    1.140483e+00
  2.619943e+01    1.052600e+00
  2.622221e+01    1.177433e+00
  2.624499e+01    1.228178e+00
  2.626778e+01    1.107904e+00
  2.629056e+01    1.135666e+00
  2.631334e+01    1.107072e+00
  2.633613e+01    1.159198e+00
  2.635891e+01    1.167854e+00
  2.638169e+01    1.121197e+00
  2.640447e+01    1.123688e+00
  2.642726e+01    1.115827e+00
  2.645004e+01    1.104472e+00
  2.647282e+01    1.102188e+00
  2.649560e+01    1.192154e+00
  2.651839e+01    1.167774e+00
  2.654117e+01    1.147354e+00
  2.656395e+01    1.086701e+00
  2.658674e+01    1.075419e+00
  2.660952e+01    1.165901e+00
  2.663230e+01    1.151470e+00
  2.665508e+01    1.113642e+00
  2.667787e+01    1.123607e+00
  2.670065e+01    1.150901e+00
  2.672343e+01    1.147234e+00
  2.674622e+01    1.192907e+00
  2.676900e+01    1.155655e+00
  2.679178e+01    1.145908e+00
  2.681456e+01    1.151122e+00
  2.683735e+01    1.126396e+00
  2.686013e+01    1.160868e+00
  2.688291e+01    1.074706e+00
  2.690570e+01    1.092509e+00
  2.692848e+01    1.128006e+00
  2.695126e+01    1.107934e+00
  2.697404e+01    1.147974e+00
  2.699683e+01    1.110159e+00
  2.701961e+01    1.150067e+00
  2.704239e+01    1.120294e+00
  2.706517e+01    1.140059e+00
  2.708796e+01    1.112101e+00
  2.711074e+01    1.173715e+00
  2.713352e+01    1.065650e+00
  2.715631e+01    1.141337e+00
  2.717909e+01    1.225430e+00
  2.720187e+01    1.206921e+00
  2.722465e+01    1.221648e+00
  2.724744e+01    1.194235e+00
  2.727022e+01    1.193250e+00
  2.729300e+01    1.170869e+00
  2.731579e+01    1.239730e+00
  2.733857e+01    1.229299e+00
  2.736135e+01    1.182537e+00
  2.738413e+01    1.206523e+00
  2.740692e+01    1.193288e+00
  2.742970e+01    1.239602e+00
  2.745248e+01    1.265142e+00
  2.747527e+01    1.284790e+00
  2.749805e+01    1.309001e+00
  2.752083e+01    1.336862e+00
  2.754361e+01    1.295722e+00
  2.756640e+01    1.280407e+00
  2.758918e+01    1.331720e+00
  2.761196e+01    1.388973e+00
  2.763474e+01    1.381181e+00
  2.765753e+01    1.496974e+00
  2.768031e+01    1.406159e+00
  2.770309e+01    1.475192e+00
  2.772588e+01    1.506817e+00
  2.774866e+01    1.545837e+00
  2.777144e+01    1.475697e+00
  2.779422e+01    1.487286e+00
  2.781701e+01    1.492825e+00
  2.783979e+01    1.491460e+00
  2.786257e+01    1.595224e+00
  2.788536e+01    1.597476e+00
  2.790814e+01    1.680802e+00
  2.793092e+01    1.656676e+00
  2.795370e+01    1.549940e+00
  2.797649e+01    1.565290e+00
  2.799927e+01    1.635659e+00
  2.802205e+01    1.643480e+00
  2.804483e+01    1.703911e+00
  2.806762e+01    1.745427e+00
  2.809040e+01    1.668703e+00
  2.811318e+01    1.675498e+00
  2.813597e+01    1.730994e+00
  2.815875e+01    1.610396e+00
  2.818153e+01    1.600016e+00
  2.820431e+01    1.738892e+00
  2.822710e+01    1.661438e+00
  2.824988e+01    1.757577e+00
  2.827266e+01    1.750809e+00
  2.829545e+01    1.740040e+00
  2.831823e+01    1.829034e+00
  2.834101e+01    1.760673e+00
  2.836379e+01    1.744194e+00
  2.838658e+01    1.641718e+00
  2.840936e+01    1.656037e+00
  2.843214e+01    1.736255e+00
  2.845493e+01    1.696217e+00
  2.847771e+01    1.678803e+00
  2.850049e+01    1.795682e+00
  2.852327e+01    1.715183e+00
  2.854606e+01    1.788681e+00
  2.856884e+01    1.760194e+00
  2.859162e+01    1.746156e+00
  2.861440e+01    1.654216e+00
  2.863719e+01    1.661249e+00
  2.865997e+01    1.775313e+00
  2.868275e+01    1.769632e+00
  2.870554e+01    1.606547e+00
  2.872832e+01    1.628919e+00
  2.875110e+01    1.617747e+00
  2.877388e+01    1.613898e+00
  2.879667e+01    1.681404e+00
  2.881945e+01    1.670316e+00
  2.884223e+01    1.564136e+00
  2.886502e+01    1.690336e+00
  2.888780e+01    1.647518e+00
  2.891058e+01    1.614532e+00
  2.893336e+01    1.646416e+00
  2.895615e+01    1.664218e+00
  2.897893e+01    1.661120e+00
  2.900171e+01    1.595918e+00
  2.902450e+01    1.544704e+00
  2.904728e+01    1.594658e+00
  2.907006e+01    1.600826e+00
  2.909284e+01    1.613893e+00
  2.911563e+01    1.651955e+00
  2.913841e+01    1.642169e+00
  2.916119e+01    1.657382e+00
  2.918397e+01    1.724970e+00
  2.920676e+01    1.623930e+00
  2.922954e+01    1.653395e+00
  2.925232e+01    1.610435e+00
  2.927511e+01    1.594121e+00
  2.929789e+01    1.563417e+00
  2.932067e+01    1.526657e+00
  2.934345e+01    1.629045e+00
  2.936624e+01    1.578434e+00
  2.938902e+01    1.586227e+00
  2.941180e+01    1.637980e+00
  2.943459e+01    1.614616e+00
  2.945737e+01    1.571493e+00
  2.948015e+01    1.581380e+00
  2.950293e+01    1.523636e+00
  2.952572e+01    1.537431e+00
  2.954850e+01    1.483877e+00
  2.957128e+01    1.462000e+00
  2.959407e+01    1.439871e+00
  2.961685e+01    1.448713e+00
  2.963963e+01    1.460926e+00
  2.966241e+01    1.481122e+00
  2.968520e+01    1.412685e+00
  2.970798e+01    1.549271e+00
  2.973076e+01    1.402865e+00
  2.975354e+01    1.405074e+00
  2.977633e+01    1.431309e+00
  2.979911e+01    1.356671e+00
  2.982189e+01    1.419028e+00
  2.984468e+01    1.349263e+00
  2.986746e+01    1.345180e+00
  2.989024e+01    1.359285e+00
  2.991302e+01    1.401603e+00
  2.993581e+01    1.381261e+00
  2.995859e+01    1.403079e+00
  2.998137e+01    1.383129e+00
  3.000416e+01    1.290559e+00
  3.002694e+01    1.361546e+00
  3.004972e+01    1.307459e+00
  3.007250e+01    1.282729e+00
  3.009529e+01    1.311250e+00
  3.011807e+01    1.265575e+00
  3.014085e+01    1.285259e+00
  3.016363e+01    1.229463e+00
  3.018642e+01    1.263962e+00
  3.020920e+01    1.282768e+00
  3.023198e+01    1.306610e+00
  3.025477e+01    1.256727e+00
  3.027755e+01    1.157277e+00
  3.030033e+01    1.155817e+00
  3.032311e+01    1.196691e+00
  3.034590e+01    1.280032e+00
  3.036868e+01    1.172328e+00
  3.039146e+01    1.244325e+00
  3.041425e+01    1.146699e+00
  3.043703e+01    1.170445e+00
  3.045981e+01    1.135107e+00
  3.048259e+01    1.206074e+00
  3.050538e+01    1.247891e+00
  3.052816e+01    1.213455e+00
  3.055094e+01    1.263397e+00
  3.057373e+01    1.239308e+00
  3.059651e+01    1.130515e+00
  3.061929e+01    1.068623e+00
  3.064207e+01    1.043733e+00
  3.066486e+01    1.187070e+00
  3.068764e+01    1.102075e+00
  3.071042e+01    1.115568e+00
  3.073320e+01    1.121704e+00
  3.075599e+01    1.056241e+00
  3.077877e+01    1.095723e+00
  3.080155e+01    1.109474e+00
  3.082434e+01    1.099768e+00
  3.084712e+01    1.130664e+00
  3.086990e+01    1.148724e+00
  3.089268e+01    1.075496e+00
  3.091547e+01    1.074875e+00
  3.093825e+01    1.075196e+00
  3.096103e+01    1.066425e+00
  3.098382e+01    1.120355e+00
  3.100660e+01    1.171585e+00
  3.102938e+01    1.090637e+00
  3.105216e+01    1.100818e+00
  3.107495e+01    1.080585e+00
  3.109773e+01    1.103225e+00
  3.112051e+01    1.042835e+00
  3.114330e+01    1.116235e+00
  3.116608e+01    1.224912e+00
  3.118886e+01    1.061409e+00
  3.121164e+01    1.129466e+00
  3.123443e+01    1.148399e+00
  3.125721e+01    1.138462e+00
  3.127999e+01    1.172949e+00
  3.130277e+01    1.153836e+00
  3.132556e+01    1.064439e+00
  3.134834e+01    1.033650e+00
  3.137112e+01    1.107427e+00
  3.139391e+01    1.077120e+00
  3.141669e+01    1.234045e+00
  3.143947e+01    1.126003e+00
  3.146225e+01    9.894558e-01
  3.148504e+01    1.071994e+00
  3.150782e+01    1.002126e+00
  3.153060e+01    1.089840e+00
  3.155339e+01    1.118198e+00
  3.157617e+01    1.073695e+00
  3.159895e+01    1.068480e+00
  3.162173e+01    9.569386e-01
  3.164452e+01    1.071500e+00
  3.166730e+01    1.100583e+00
  3.169008e+01    1.184093e+00
  3.171286e+01    1.146568e+00
  3.173565e+01    1.054934e+00
  3.175843e+01    1.084996e+00
  3.178121e+01    1.159634e+00
  3.180400e+01    1.141022e+00
  3.182678e+01    9.585829e-01
  3.184956e+01    1.091706e+00
  3.187234e+01    1.072083e+00
  3.189513e+01    1.118231e+00
  3.191791e+01    9.838004e-01
  3.194069e+01    1.074801e+00
  3.196348e+01    1.037017e+00
  3.198626e+01    1.026070e+00
  3.200904e+01    1.071818e+00
  3.203182e+01    1.067194e+00
  3.205461e+01    1.127598e+00
  3.207739e+01    1.145601e+00
  3.210017e+01    1.095719e+00
  3.212296e+01    1.125897e+00
  3.214574e+01    1.038161e+00
  3.216852e+01    1.186971e+00
  3.219130e+01    1.099310e+00
  3.221409e+01    1.046643e+00
  3.223687e+01    1.062658e+00
  3.225965e+01    1.091731e+00
  3.228243e+01    1.097338e+00
  3.230522e+01    9.858419e-01
  3.232800e+01    1.040520e+00
  3.235078e+01    1.023368e+00
  3.237357e+01    1.127994e+00
  3.239635e+01    1.052640e+00
  3.241913e+01    1.058699e+00
  3.244191e+01    1.078781e+00
  3.246470e+01    1.209205e+00
  3.248748e+01    1.146717e+00
  3.251026e+01    1.012261e+00
  3.253305e+01    1.106527e+00
  3.255583e+01    1.013948e+00
  3.257861e+01    1.029099e+00
  3.260139e+01    9.370397e-01
  3.262418e+01    9.416657e-01
  3.264696e+01    1.014531e+00
  3.266974e+01    1.091895e+00
  3.269253e+01    1.001429e+00
  3.271531e+01    1.154317e+00
  3.273809e+01    1.230911e+00
  3.276087e+01    1.008109e+00
  3.278366e+01    1.024235e+00
  3.280644e+01    1.120716e+00
  3.282922e+01    1.049078e+00
  3.285200e+01    1.086030e+00
  3.287479e+01    1.063042e+00
  3.289757e+01    1.104800e+00
  3.292035e+01    1.056756e+00
  3.294314e+01    1.011952e+00
  3.296592e+01    1.046221e+00
  3.298870e+01    1.058382e+00
  3.301148e+01    9.875612e-01
  3.303427e+01    1.243786e+00
  3.305705e+01    1.259237e+00
  3.307983e+01    1.302491e+00
  3.310262e+01    1.321780e+00
  3.312540e+01    1.328546e+00
  3.314818e+01    9.763924e-01
  3.317096e+01    1.173546e+00
  3.319375e+01    1.280143e+00
  3.321653e+01    9.421670e-01
  3.323931e+01    1.261812e+00
  3.326209e+01    8.581915e-01
  3.328488e+01    8.080040e-01
  3.330766e+01    1.448462e+00
  3.333044e+01    8.520358e-01
  3.335323e+01    9.122065e-01
  3.337601e+01    8.002632e-01
  3.339879e+01    3.005906e-01
  3.342157e+01    3.415225e-01
  3.344436e+01    1.160322e+00
  3.346714e+01    0.000000e+00
  3.348992e+01    0.000000e+00
  3.351271e+01    0.000000e+00
  3.353549e+01    0.000000e+00
  3.355827e+01    0.000000e+00
  3.358105e+01    0.000000e+00
  3.360384e+01    0.000000e+00
  3.362662e+01    0.000000e+00
  3.364940e+01    0.000000e+00
  3.367219e+01    0.000000e+00
  3.369497e+01    0.000000e+00
  3.371775e+01    0.000000e+00
