# == pyFAI calibration ==
# Distance Sample to Detector: 0.21311058206280517 m
# PONI: 2.037e-01, 1.993e-01 m
# Rotations: -0.005459 0.000134 0.000000 rad
# 
# == Fit2d calibration ==
# Distance Sample-beamCenter: 213.114 mm
# Center: x=1002.134, y=1018.730 pix
# Tilt: 0.313 deg  TiltPlanRot: 1.411 deg
# 
# Detector Perkin detector	 PixelSize= 2.000e-04, 2.000e-04 m
#    Detector has a mask: False 
#    Detector has a dark current: False 
#    detector has a flat field: False 
# 
# Wavelength: 1.675e-11 m
# Mask applied: provided
# Dark current applied: False
# Flat field applied: False
# Polarization factor: None
# Normalization factor: 1.0
# --> data/chi_bkgsub_true/C_Tatania6-16.8-average.chi
#        q_A^-1             I 
  2.199784e-02    2.135871e+00
  4.478064e-02    1.763735e+00
  6.756343e-02    2.020346e+00
  9.034623e-02    1.587937e+00
  1.131290e-01    1.531807e+00
  1.359118e-01    1.230505e+00
  1.586946e-01    1.761149e+00
  1.814774e-01    1.854999e+00
  2.042602e-01    1.404921e+00
  2.270430e-01    2.575345e+00
  2.498258e-01    4.198425e+00
  2.726086e-01    8.873037e+00
  2.953914e-01    2.735506e+01
  3.181742e-01    5.970029e+01
  3.409570e-01    8.230878e+01
  3.637398e-01    6.079314e+01
  3.865226e-01    4.395525e+01
  4.093054e-01    4.394529e+01
  4.320881e-01    3.603941e+01
  4.548709e-01    2.177546e+01
  4.776537e-01    1.256760e+01
  5.004365e-01    1.008097e+01
  5.232193e-01    9.752450e+00
  5.460021e-01    1.077642e+01
  5.687849e-01    1.258197e+01
  5.915677e-01    1.350040e+01
  6.143505e-01    1.260880e+01
  6.371333e-01    1.169627e+01
  6.599161e-01    1.191164e+01
  6.826989e-01    1.205283e+01
  7.054817e-01    1.137699e+01
  7.282645e-01    1.091571e+01
  7.510473e-01    1.066424e+01
  7.738301e-01    1.047746e+01
  7.966129e-01    9.720242e+00
  8.193956e-01    9.646031e+00
  8.421784e-01    9.164554e+00
  8.649612e-01    8.662431e+00
  8.877440e-01    8.181310e+00
  9.105268e-01    7.936280e+00
  9.333096e-01    7.746554e+00
  9.560924e-01    7.112619e+00
  9.788752e-01    6.538560e+00
  1.001658e+00    6.458253e+00
  1.024441e+00    6.405718e+00
  1.047224e+00    6.230499e+00
  1.070006e+00    5.618092e+00
  1.092789e+00    5.889146e+00
  1.115572e+00    5.116162e+00
  1.138355e+00    4.117792e+00
  1.161138e+00    4.032232e+00
  1.183920e+00    3.529771e+00
  1.206703e+00    3.574165e+00
  1.229486e+00    4.056026e+00
  1.252269e+00    3.534348e+00
  1.275052e+00    3.019975e+00
  1.297834e+00    2.668837e+00
  1.320617e+00    2.610105e+00
  1.343400e+00    2.527238e+00
  1.366183e+00    2.326820e+00
  1.388966e+00    2.208745e+00
  1.411748e+00    2.539186e+00
  1.434531e+00    2.061898e+00
  1.457314e+00    2.214785e+00
  1.480097e+00    3.476110e+00
  1.502879e+00    1.888900e+00
  1.525662e+00    1.332835e+00
  1.548445e+00    1.647535e+00
  1.571228e+00    2.385383e+00
  1.594011e+00    2.136026e+00
  1.616793e+00    2.203146e+00
  1.639576e+00    3.240481e+00
  1.662359e+00    8.590436e+00
  1.685142e+00    2.144455e+01
  1.707925e+00    4.817054e+01
  1.730707e+00    9.423062e+01
  1.753490e+00    1.456529e+02
  1.776273e+00    1.752125e+02
  1.799056e+00    1.677483e+02
  1.821839e+00    1.266599e+02
  1.844621e+00    7.370620e+01
  1.867404e+00    3.687403e+01
  1.890187e+00    1.773009e+01
  1.912970e+00    5.760773e+00
  1.935753e+00    1.773783e+00
  1.958535e+00    9.369049e-01
  1.981318e+00    1.507078e+00
  2.004101e+00    1.609107e+00
  2.026884e+00    7.848256e-01
  2.049667e+00    9.949010e-01
  2.072449e+00    1.386078e+00
  2.095232e+00    1.280576e+00
  2.118015e+00    1.638617e+00
  2.140798e+00    1.979628e+00
  2.163581e+00    1.337382e+00
  2.186363e+00    1.173713e+00
  2.209146e+00    0.000000e+00
  2.231929e+00    0.000000e+00
  2.254712e+00    1.785153e+00
  2.277494e+00    1.798775e+00
  2.300277e+00    1.805903e+00
  2.323060e+00    2.730743e+00
  2.345843e+00    2.730743e+00
  2.368626e+00    3.376819e+00
  2.391408e+00    3.139428e+00
  2.414191e+00    1.048627e+00
  2.436974e+00    1.425588e+00
  2.459757e+00    2.339403e+00
  2.482540e+00    1.068089e+00
  2.505322e+00    1.060699e+00
  2.528105e+00    3.850156e-01
  2.550888e+00    4.068392e+00
  2.573671e+00    7.643001e+00
  2.596454e+00    1.341308e+01
  2.619236e+00    2.095160e+01
  2.642019e+00    2.624674e+01
  2.664802e+00    2.316220e+01
  2.687585e+00    1.553609e+01
  2.710368e+00    8.634486e+00
  2.733150e+00    4.558574e+00
  2.755933e+00    2.112913e+00
  2.778716e+00    1.152969e+00
  2.801499e+00    1.955344e+00
  2.824282e+00    1.721555e+00
  2.847064e+00    2.212142e+00
  2.869847e+00    2.118075e+00
  2.892630e+00    1.791472e+00
  2.915413e+00    9.114261e-01
  2.938196e+00    2.053618e+00
  2.960978e+00    1.879352e+00
  2.983761e+00    1.469589e+00
  3.006544e+00    2.414627e+00
  3.029327e+00    1.616188e+00
  3.052110e+00    1.319993e+00
  3.074892e+00    1.403563e+00
  3.097675e+00    7.887725e-02
  3.120458e+00    8.026247e-02
  3.143241e+00    6.970735e-01
  3.166023e+00    7.785084e-01
  3.188806e+00    1.370701e+00
  3.211589e+00    5.547340e+00
  3.234372e+00    1.171398e+01
  3.257155e+00    2.124227e+01
  3.279937e+00    3.540354e+01
  3.302720e+00    4.581071e+01
  3.325503e+00    4.438614e+01
  3.348286e+00    3.234226e+01
  3.371069e+00    1.826977e+01
  3.393851e+00    9.860262e+00
  3.416634e+00    4.846165e+00
  3.439417e+00    1.724468e+00
  3.462200e+00    1.472761e+00
  3.484983e+00    1.376077e+00
  3.507765e+00    1.262590e+00
  3.530548e+00    1.852565e+00
  3.553331e+00    1.291745e+00
  3.576114e+00    1.979882e+00
  3.598897e+00    5.133818e+00
  3.621679e+00    9.888761e+00
  3.644462e+00    1.889237e+01
  3.667245e+00    3.321766e+01
  3.690028e+00    4.751899e+01
  3.712811e+00    5.474779e+01
  3.735593e+00    5.413532e+01
  3.758376e+00    4.715964e+01
  3.781159e+00    3.516822e+01
  3.803942e+00    2.171805e+01
  3.826725e+00    1.157071e+01
  3.849507e+00    6.040450e+00
  3.872290e+00    3.382902e+00
  3.895073e+00    2.058470e+00
  3.917856e+00    2.437772e+00
  3.940638e+00    1.864808e+00
  3.963421e+00    9.022897e-01
  3.986204e+00    1.355194e+00
  4.008987e+00    9.482880e-01
  4.031770e+00    5.544512e-01
  4.054552e+00    1.076892e+00
  4.077335e+00    1.476475e+00
  4.100118e+00    1.546300e+00
  4.122901e+00    1.526184e-01
  4.145684e+00    2.495640e+00
  4.168466e+00    4.046352e+00
  4.191249e+00    7.165870e+00
  4.214032e+00    1.045652e+01
  4.236815e+00    1.265489e+01
  4.259598e+00    1.101500e+01
  4.282380e+00    7.518705e+00
  4.305163e+00    4.754673e+00
  4.327946e+00    2.496659e+00
  4.350729e+00    1.825695e+00
  4.373512e+00    1.266150e+00
  4.396294e+00    9.869642e-01
  4.419077e+00    8.746145e-01
  4.441860e+00    6.632244e-01
  4.464643e+00    1.149639e+00
  4.487426e+00    1.090638e+00
  4.510208e+00    7.749939e-02
  4.532991e+00    2.134670e+00
  4.555774e+00    1.963576e+00
  4.578557e+00    1.550379e+00
  4.601340e+00    1.617959e+00
  4.624122e+00    1.715518e+00
  4.646905e+00    2.057542e+00
  4.669688e+00    2.079302e+00
  4.692471e+00    1.946392e+00
  4.715253e+00    2.219869e+00
  4.738036e+00    1.745009e+00
  4.760819e+00    1.225421e+00
  4.783602e+00    1.091048e+00
  4.806385e+00    1.041624e+00
  4.829167e+00    1.085316e+00
  4.851950e+00    1.638282e+00
  4.874733e+00    1.680033e+00
  4.897516e+00    2.205784e+00
  4.920299e+00    2.940149e+00
  4.943081e+00    3.591389e+00
  4.965864e+00    3.635328e+00
  4.988647e+00    3.368548e+00
  5.011430e+00    2.762547e+00
  5.034213e+00    2.155746e+00
  5.056995e+00    4.330732e-01
  5.079778e+00    1.100788e+00
  5.102561e+00    1.446137e+00
  5.125344e+00    9.854019e-01
  5.148127e+00    1.172335e+00
  5.170909e+00    1.915531e+00
  5.193692e+00    6.218190e-01
  5.216475e+00    9.352112e-01
  5.239258e+00    1.338031e+00
  5.262041e+00    4.101857e-01
  5.284823e+00    6.058760e-01
  5.307606e+00    9.156544e-01
  5.330389e+00    2.460341e+00
  5.353172e+00    1.807104e+00
  5.375955e+00    1.274000e+00
  5.398737e+00    1.389826e+00
  5.421520e+00    1.172438e+00
  5.444303e+00    1.377417e+00
  5.467086e+00    6.397863e-01
  5.489869e+00    3.779766e-01
  5.512651e+00    2.492371e-01
  5.535434e+00    1.510489e+00
  5.558217e+00    1.467217e+00
  5.581000e+00    1.198138e+00
  5.603782e+00    7.712710e-01
  5.626565e+00    6.557429e-01
  5.649348e+00    5.518884e-01
  5.672131e+00    9.960334e-01
  5.694914e+00    9.953879e-01
  5.717696e+00    7.193298e-01
  5.740479e+00    1.342148e+00
  5.763262e+00    1.506053e+00
  5.786045e+00    2.050594e+00
  5.808828e+00    1.498567e+00
  5.831610e+00    1.212253e+00
  5.854393e+00    1.122428e+00
  5.877176e+00    1.464832e+00
  5.899959e+00    1.578419e+00
  5.922742e+00    1.270650e+00
  5.945524e+00    1.364446e+00
  5.968307e+00    1.581059e+00
  5.991090e+00    1.579939e+00
  6.013873e+00    1.245556e+00
  6.036656e+00    8.188618e-01
  6.059438e+00    8.050324e-01
  6.082221e+00    2.718708e+00
  6.105004e+00    2.309887e+00
  6.127787e+00    9.166650e-01
  6.150570e+00    1.445353e+00
  6.173352e+00    1.398638e+00
  6.196135e+00    1.136511e+00
  6.218918e+00    1.101849e+00
  6.241701e+00    9.565842e-01
  6.264484e+00    7.980660e-01
  6.287266e+00    2.002873e+00
  6.310049e+00    1.947384e+00
  6.332832e+00    8.768875e-01
  6.355615e+00    1.297790e+00
  6.378397e+00    1.105094e+00
  6.401180e+00    6.817376e-01
  6.423963e+00    1.659269e+00
  6.446746e+00    1.567889e+00
  6.469529e+00    1.271477e+00
  6.492311e+00    9.626504e-01
  6.515094e+00    1.116867e+00
  6.537877e+00    1.717218e+00
  6.560660e+00    1.640318e+00
  6.583443e+00    1.380105e+00
  6.606225e+00    1.226759e+00
  6.629008e+00    1.439646e+00
  6.651791e+00    1.294041e+00
  6.674574e+00    1.350349e+00
  6.697357e+00    1.559162e+00
  6.720139e+00    1.544657e+00
  6.742922e+00    1.496126e+00
  6.765705e+00    1.086475e+00
  6.788488e+00    1.077161e+00
  6.811271e+00    1.335418e+00
  6.834053e+00    1.730583e+00
  6.856836e+00    1.732270e+00
  6.879619e+00    1.527828e+00
  6.902402e+00    1.361316e+00
  6.925185e+00    1.515387e+00
  6.947967e+00    1.920753e+00
  6.970750e+00    2.361540e+00
  6.993533e+00    3.022356e+00
  7.016316e+00    3.032329e+00
  7.039099e+00    2.619363e+00
  7.061881e+00    2.379991e+00
  7.084664e+00    2.201326e+00
  7.107447e+00    1.963991e+00
  7.130230e+00    1.889284e+00
  7.153013e+00    1.759888e+00
  7.175795e+00    1.590525e+00
  7.198578e+00    1.370392e+00
  7.221361e+00    1.338038e+00
  7.244144e+00    9.738910e-01
  7.266926e+00    9.122767e-01
  7.289709e+00    6.802821e-01
  7.312492e+00    9.420004e-01
  7.335275e+00    8.915507e-01
  7.358058e+00    9.807065e-01
  7.380840e+00    1.390904e+00
  7.403623e+00    1.640090e+00
  7.426406e+00    1.432188e+00
  7.449189e+00    1.636698e+00
  7.471972e+00    1.662289e+00
  7.494754e+00    1.362603e+00
  7.517537e+00    1.295972e+00
  7.540320e+00    1.115934e+00
  7.563103e+00    1.582524e+00
  7.585886e+00    1.536365e+00
  7.608668e+00    1.312399e+00
  7.631451e+00    9.185650e-01
  7.654234e+00    1.326236e+00
  7.677017e+00    1.111345e+00
  7.699800e+00    1.099486e+00
  7.722582e+00    1.018483e+00
  7.745365e+00    5.623178e-01
  7.768148e+00    8.486089e-01
  7.790931e+00    1.039781e+00
  7.813714e+00    1.121629e+00
  7.836496e+00    1.261077e+00
  7.859279e+00    1.410736e+00
  7.882062e+00    1.241020e+00
  7.904845e+00    9.896967e-01
  7.927628e+00    1.070153e+00
  7.950410e+00    1.419119e+00
  7.973193e+00    1.297775e+00
  7.995976e+00    1.451750e+00
  8.018759e+00    1.747979e+00
  8.041541e+00    7.473223e+00
  8.064324e+00    1.388134e+01
  8.087107e+00    1.717955e+00
  8.109890e+00    2.004364e+00
  8.132673e+00    1.740288e+00
  8.155455e+00    7.993204e-01
  8.178238e+00    3.401325e-01
  8.201021e+00    5.440912e-01
  8.223804e+00    7.507162e-01
  8.246587e+00    2.283564e+00
  8.269369e+00    1.502836e+00
  8.292152e+00    1.001379e+00
  8.314935e+00    1.162287e+00
  8.337718e+00    1.624097e+00
  8.360501e+00    1.216469e+00
  8.383283e+00    1.258894e+00
  8.406066e+00    1.483585e+00
  8.428849e+00    1.350868e+00
  8.451632e+00    1.428524e+00
  8.474415e+00    1.360984e+00
  8.497197e+00    1.023378e+00
  8.519980e+00    1.021386e+00
  8.542763e+00    1.254305e+00
  8.565546e+00    1.324984e+00
  8.588329e+00    1.377141e+00
  8.611111e+00    3.374662e+00
  8.633894e+00    3.579399e+00
  8.656677e+00    5.854079e-01
  8.679460e+00    9.646059e-01
  8.702243e+00    1.125445e+00
  8.725025e+00    1.805294e+00
  8.747808e+00    2.036118e+00
  8.770591e+00    1.329814e+00
  8.793374e+00    1.453853e+00
  8.816156e+00    2.205290e+00
  8.838939e+00    1.016589e+00
  8.861722e+00    8.630127e-01
  8.884505e+00    7.430035e-01
  8.907288e+00    9.468915e-01
  8.930070e+00    9.773158e-01
  8.952853e+00    6.738902e-01
  8.975636e+00    1.216002e+00
  8.998419e+00    1.255459e+00
  9.021202e+00    1.088861e+00
  9.043984e+00    8.403820e-01
  9.066767e+00    1.129331e+00
  9.089550e+00    1.077222e+00
  9.112333e+00    1.102506e+00
  9.135116e+00    1.048409e+00
  9.157898e+00    1.164568e+00
  9.180681e+00    1.257043e+00
  9.203464e+00    1.499955e+00
  9.226247e+00    1.631734e+00
  9.249030e+00    1.677585e+00
  9.271812e+00    9.876243e-01
  9.294595e+00    1.539534e+00
  9.317378e+00    2.062179e+00
  9.340161e+00    1.507507e+00
  9.362944e+00    1.136482e+00
  9.385726e+00    1.249475e+00
  9.408509e+00    1.299407e+00
  9.431292e+00    1.265820e+00
  9.454075e+00    1.228656e+00
  9.476858e+00    1.111474e+00
  9.499640e+00    1.172256e+00
  9.522423e+00    1.176217e+00
  9.545206e+00    1.050531e+00
  9.567989e+00    1.584994e+00
  9.590772e+00    1.656339e+00
  9.613554e+00    8.956690e-01
  9.636337e+00    2.155931e+00
  9.659120e+00    1.925529e+00
  9.681903e+00    1.529920e+00
  9.704685e+00    1.884313e+00
  9.727468e+00    9.342092e-01
  9.750251e+00    1.039704e+00
  9.773034e+00    1.140684e+00
  9.795817e+00    9.765449e-01
  9.818599e+00    1.483994e+00
  9.841382e+00    9.079476e-01
  9.864165e+00    1.370117e+00
  9.886948e+00    9.155535e-01
  9.909731e+00    9.661399e-01
  9.932513e+00    1.138931e+00
  9.955296e+00    1.212276e+00
  9.978079e+00    1.185193e+00
  1.000086e+01    7.365047e-01
  1.002364e+01    1.544864e+00
  1.004643e+01    1.434137e+00
  1.006921e+01    1.178111e+00
  1.009199e+01    1.208045e+00
  1.011478e+01    1.140293e+00
  1.013756e+01    1.373740e+00
  1.016034e+01    8.204174e-01
  1.018312e+01    8.102353e-01
  1.020591e+01    1.151514e+00
  1.022869e+01    1.159085e+00
  1.025147e+01    9.990714e-01
  1.027426e+01    1.125862e+00
  1.029704e+01    1.132136e+00
  1.031982e+01    1.089069e+00
  1.034260e+01    1.185405e+00
  1.036539e+01    1.428257e+00
  1.038817e+01    1.369251e+00
  1.041095e+01    1.554336e+00
  1.043373e+01    1.576531e+00
  1.045652e+01    1.527901e+00
  1.047930e+01    1.428104e+00
  1.050208e+01    1.525922e+00
  1.052487e+01    1.442840e+00
  1.054765e+01    1.414023e+00
  1.057043e+01    1.608814e+00
  1.059321e+01    1.710849e+00
  1.061600e+01    1.667083e+00
  1.063878e+01    1.733901e+00
  1.066156e+01    1.688181e+00
  1.068435e+01    1.631293e+00
  1.070713e+01    1.702356e+00
  1.072991e+01    1.683585e+00
  1.075269e+01    1.580058e+00
  1.077548e+01    1.653394e+00
  1.079826e+01    1.642007e+00
  1.082104e+01    1.495023e+00
  1.084383e+01    1.365074e+00
  1.086661e+01    1.036227e+00
  1.088939e+01    1.016471e+00
  1.091217e+01    1.246625e+00
  1.093496e+01    1.532393e+00
  1.095774e+01    1.461703e+00
  1.098052e+01    1.253232e+00
  1.100330e+01    1.280262e+00
  1.102609e+01    1.174237e+00
  1.104887e+01    1.090056e+00
  1.107165e+01    1.143063e+00
  1.109444e+01    1.528646e+00
  1.111722e+01    1.445248e+00
  1.114000e+01    1.388016e+00
  1.116278e+01    1.279525e+00
  1.118557e+01    1.288858e+00
  1.120835e+01    1.578192e+00
  1.123113e+01    1.309048e+00
  1.125392e+01    1.180554e+00
  1.127670e+01    1.428986e+00
  1.129948e+01    1.057619e+00
  1.132226e+01    9.063640e-01
  1.134505e+01    1.175053e+00
  1.136783e+01    1.276642e+00
  1.139061e+01    1.173622e+00
  1.141340e+01    1.443248e+00
  1.143618e+01    1.225044e+00
  1.145896e+01    1.088803e+00
  1.148174e+01    1.166641e+00
  1.150453e+01    1.244969e+00
  1.152731e+01    1.432289e+00
  1.155009e+01    1.455158e+00
  1.157287e+01    1.358718e+00
  1.159566e+01    1.200441e+00
  1.161844e+01    1.345565e+00
  1.164122e+01    1.380274e+00
  1.166401e+01    1.376946e+00
  1.168679e+01    1.325053e+00
  1.170957e+01    1.372399e+00
  1.173235e+01    1.421020e+00
  1.175514e+01    1.292017e+00
  1.177792e+01    1.332532e+00
  1.180070e+01    1.325469e+00
  1.182349e+01    1.487000e+00
  1.184627e+01    1.407522e+00
  1.186905e+01    1.263579e+00
  1.189183e+01    1.392267e+00
  1.191462e+01    1.396921e+00
  1.193740e+01    1.257539e+00
  1.196018e+01    1.223453e+00
  1.198296e+01    1.511094e+00
  1.200575e+01    1.385217e+00
  1.202853e+01    1.218485e+00
  1.205131e+01    1.505118e+00
  1.207410e+01    1.301313e+00
  1.209688e+01    1.265154e+00
  1.211966e+01    1.264744e+00
  1.214244e+01    1.354956e+00
  1.216523e+01    1.328335e+00
  1.218801e+01    1.321215e+00
  1.221079e+01    1.276269e+00
  1.223358e+01    1.301264e+00
  1.225636e+01    1.333647e+00
  1.227914e+01    1.393350e+00
  1.230192e+01    1.365782e+00
  1.232471e+01    1.297097e+00
  1.234749e+01    1.296364e+00
  1.237027e+01    1.358102e+00
  1.239306e+01    1.278444e+00
  1.241584e+01    1.169688e+00
  1.243862e+01    1.210641e+00
  1.246140e+01    1.345390e+00
  1.248419e+01    1.340198e+00
  1.250697e+01    1.199848e+00
  1.252975e+01    1.289468e+00
  1.255253e+01    1.270931e+00
  1.257532e+01    1.240738e+00
  1.259810e+01    1.298393e+00
  1.262088e+01    1.361916e+00
  1.264367e+01    1.267379e+00
  1.266645e+01    1.349869e+00
  1.268923e+01    1.052068e+00
  1.271201e+01    1.270411e+00
  1.273480e+01    1.183620e+00
  1.275758e+01    1.251048e+00
  1.278036e+01    1.163548e+00
  1.280315e+01    1.145872e+00
  1.282593e+01    1.064582e+00
  1.284871e+01    1.118807e+00
  1.287149e+01    1.272802e+00
  1.289428e+01    1.283185e+00
  1.291706e+01    1.085341e+00
  1.293984e+01    1.315156e+00
  1.296263e+01    1.442216e+00
  1.298541e+01    1.169365e+00
  1.300819e+01    1.150571e+00
  1.303097e+01    1.207202e+00
  1.305376e+01    1.278080e+00
  1.307654e+01    1.162625e+00
  1.309932e+01    1.331973e+00
  1.312210e+01    1.415074e+00
  1.314489e+01    1.275398e+00
  1.316767e+01    1.281099e+00
  1.319045e+01    1.261811e+00
  1.321324e+01    1.236418e+00
  1.323602e+01    1.335581e+00
  1.325880e+01    1.424943e+00
  1.328158e+01    1.473134e+00
  1.330437e+01    1.412443e+00
  1.332715e+01    1.502950e+00
  1.334993e+01    1.489782e+00
  1.337272e+01    1.292592e+00
  1.339550e+01    1.422581e+00
  1.341828e+01    1.393321e+00
  1.344106e+01    1.338138e+00
  1.346385e+01    1.402156e+00
  1.348663e+01    1.481831e+00
  1.350941e+01    1.371734e+00
  1.353219e+01    1.405600e+00
  1.355498e+01    1.386882e+00
  1.357776e+01    1.241593e+00
  1.360054e+01    1.282874e+00
  1.362333e+01    1.192600e+00
  1.364611e+01    1.358729e+00
  1.366889e+01    1.408398e+00
  1.369167e+01    1.410664e+00
  1.371446e+01    1.509801e+00
  1.373724e+01    1.364944e+00
  1.376002e+01    1.247709e+00
  1.378281e+01    1.199251e+00
  1.380559e+01    1.227771e+00
  1.382837e+01    1.107339e+00
  1.385115e+01    1.172212e+00
  1.387394e+01    1.403630e+00
  1.389672e+01    1.349875e+00
  1.391950e+01    1.214585e+00
  1.394229e+01    1.320496e+00
  1.396507e+01    1.499675e+00
  1.398785e+01    1.399660e+00
  1.401063e+01    1.392122e+00
  1.403342e+01    1.420450e+00
  1.405620e+01    1.457927e+00
  1.407898e+01    1.438800e+00
  1.410176e+01    1.334925e+00
  1.412455e+01    1.427972e+00
  1.414733e+01    1.410629e+00
  1.417011e+01    1.445830e+00
  1.419290e+01    1.439208e+00
  1.421568e+01    1.276024e+00
  1.423846e+01    1.395090e+00
  1.426124e+01    1.455984e+00
  1.428403e+01    1.393422e+00
  1.430681e+01    1.312813e+00
  1.432959e+01    1.252437e+00
  1.435238e+01    1.403864e+00
  1.437516e+01    1.393795e+00
  1.439794e+01    1.235075e+00
  1.442072e+01    1.281248e+00
  1.444351e+01    1.346300e+00
  1.446629e+01    1.335193e+00
  1.448907e+01    1.356331e+00
  1.451186e+01    1.495254e+00
  1.453464e+01    1.590163e+00
  1.455742e+01    1.415064e+00
  1.458020e+01    1.254534e+00
  1.460299e+01    1.364774e+00
  1.462577e+01    1.305213e+00
  1.464855e+01    1.214350e+00
  1.467133e+01    1.162866e+00
  1.469412e+01    1.410692e+00
  1.471690e+01    1.299673e+00
  1.473968e+01    1.229200e+00
  1.476247e+01    1.339526e+00
  1.478525e+01    1.487693e+00
  1.480803e+01    1.520385e+00
  1.483081e+01    1.510873e+00
  1.485360e+01    1.583429e+00
  1.487638e+01    1.308609e+00
  1.489916e+01    1.197399e+00
  1.492195e+01    1.392688e+00
  1.494473e+01    1.501973e+00
  1.496751e+01    1.442687e+00
  1.499029e+01    1.391525e+00
  1.501308e+01    1.364652e+00
  1.503586e+01    1.198925e+00
  1.505864e+01    1.345905e+00
  1.508142e+01    1.377201e+00
  1.510421e+01    1.296159e+00
  1.512699e+01    1.315309e+00
  1.514977e+01    1.442703e+00
  1.517256e+01    1.325111e+00
  1.519534e+01    1.517902e+00
  1.521812e+01    1.396323e+00
  1.524090e+01    1.372958e+00
  1.526369e+01    1.355757e+00
  1.528647e+01    1.374560e+00
  1.530925e+01    1.471648e+00
  1.533204e+01    1.385955e+00
  1.535482e+01    1.302406e+00
  1.537760e+01    1.293756e+00
  1.540038e+01    1.518148e+00
  1.542317e+01    1.382266e+00
  1.544595e+01    1.589491e+00
  1.546873e+01    1.448262e+00
  1.549152e+01    1.224096e+00
  1.551430e+01    1.249046e+00
  1.553708e+01    1.251986e+00
  1.555986e+01    1.354231e+00
  1.558265e+01    1.442285e+00
  1.560543e+01    1.415626e+00
  1.562821e+01    1.522341e+00
  1.565099e+01    1.346919e+00
  1.567378e+01    1.346781e+00
  1.569656e+01    1.301478e+00
  1.571934e+01    1.352064e+00
  1.574213e+01    1.240391e+00
  1.576491e+01    1.387488e+00
  1.578769e+01    1.537464e+00
  1.581047e+01    1.375480e+00
  1.583326e+01    1.238665e+00
  1.585604e+01    1.155759e+00
  1.587882e+01    1.337510e+00
  1.590161e+01    1.477740e+00
  1.592439e+01    1.475141e+00
  1.594717e+01    1.222050e+00
  1.596995e+01    1.223690e+00
  1.599274e+01    1.267996e+00
  1.601552e+01    1.271365e+00
  1.603830e+01    1.139601e+00
  1.606109e+01    1.390853e+00
  1.608387e+01    1.416930e+00
  1.610665e+01    1.308621e+00
  1.612943e+01    1.403612e+00
  1.615222e+01    1.361330e+00
  1.617500e+01    1.227700e+00
  1.619778e+01    1.185393e+00
  1.622056e+01    1.209020e+00
  1.624335e+01    1.368334e+00
  1.626613e+01    1.365429e+00
  1.628891e+01    1.447225e+00
  1.631170e+01    1.408038e+00
  1.633448e+01    1.262711e+00
  1.635726e+01    1.312569e+00
  1.638004e+01    1.409541e+00
  1.640283e+01    1.437805e+00
  1.642561e+01    1.380794e+00
  1.644839e+01    1.384941e+00
  1.647118e+01    1.457922e+00
  1.649396e+01    1.344286e+00
  1.651674e+01    1.441791e+00
  1.653952e+01    1.450428e+00
  1.656231e+01    1.473269e+00
  1.658509e+01    1.408159e+00
  1.660787e+01    1.482502e+00
  1.663065e+01    1.402562e+00
  1.665344e+01    1.478876e+00
  1.667622e+01    1.441527e+00
  1.669900e+01    1.338764e+00
  1.672179e+01    1.333831e+00
  1.674457e+01    1.518932e+00
  1.676735e+01    1.365523e+00
  1.679013e+01    1.401917e+00
  1.681292e+01    1.458086e+00
  1.683570e+01    1.430855e+00
  1.685848e+01    1.441307e+00
  1.688127e+01    1.358779e+00
  1.690405e+01    1.373731e+00
  1.692683e+01    1.292646e+00
  1.694961e+01    1.252321e+00
  1.697240e+01    1.214815e+00
  1.699518e+01    1.292750e+00
  1.701796e+01    1.315823e+00
  1.704075e+01    1.320345e+00
  1.706353e+01    1.411571e+00
  1.708631e+01    1.327256e+00
  1.710909e+01    1.396928e+00
  1.713188e+01    1.347950e+00
  1.715466e+01    1.333286e+00
  1.717744e+01    1.303140e+00
  1.720022e+01    1.466536e+00
  1.722301e+01    1.443984e+00
  1.724579e+01    1.343575e+00
  1.726857e+01    1.171339e+00
  1.729136e+01    1.129065e+00
  1.731414e+01    1.150117e+00
  1.733692e+01    1.252389e+00
  1.735970e+01    1.329841e+00
  1.738249e+01    1.431371e+00
  1.740527e+01    1.464632e+00
  1.742805e+01    1.407456e+00
  1.745084e+01    1.422561e+00
  1.747362e+01    1.376768e+00
  1.749640e+01    1.423491e+00
  1.751918e+01    1.468716e+00
  1.754197e+01    1.396378e+00
  1.756475e+01    1.215227e+00
  1.758753e+01    1.271919e+00
  1.761032e+01    1.526802e+00
  1.763310e+01    1.470656e+00
  1.765588e+01    1.410828e+00
  1.767866e+01    1.348947e+00
  1.770145e+01    1.328435e+00
  1.772423e+01    1.219585e+00
  1.774701e+01    1.339006e+00
  1.776979e+01    1.337095e+00
  1.779258e+01    1.322907e+00
  1.781536e+01    1.369167e+00
  1.783814e+01    1.375978e+00
  1.786093e+01    1.362920e+00
  1.788371e+01    1.261249e+00
  1.790649e+01    1.389864e+00
  1.792927e+01    1.618574e+00
  1.795206e+01    1.405931e+00
  1.797484e+01    1.191790e+00
  1.799762e+01    1.266087e+00
  1.802041e+01    1.303101e+00
  1.804319e+01    1.449026e+00
  1.806597e+01    1.270099e+00
  1.808875e+01    1.422872e+00
  1.811154e+01    1.441463e+00
  1.813432e+01    1.355374e+00
  1.815710e+01    1.381049e+00
  1.817989e+01    1.374841e+00
  1.820267e+01    1.295871e+00
  1.822545e+01    1.411895e+00
  1.824823e+01    1.261009e+00
  1.827102e+01    1.373284e+00
  1.829380e+01    1.377401e+00
  1.831658e+01    1.444875e+00
  1.833936e+01    1.343153e+00
  1.836215e+01    1.356976e+00
  1.838493e+01    1.265835e+00
  1.840771e+01    1.287308e+00
  1.843050e+01    1.284215e+00
  1.845328e+01    1.412831e+00
  1.847606e+01    1.497762e+00
  1.849884e+01    1.405885e+00
  1.852163e+01    1.269463e+00
  1.854441e+01    1.352594e+00
  1.856719e+01    1.380504e+00
  1.858998e+01    1.376820e+00
  1.861276e+01    1.492833e+00
  1.863554e+01    1.444764e+00
  1.865832e+01    1.463926e+00
  1.868111e+01    1.388506e+00
  1.870389e+01    1.325464e+00
  1.872667e+01    1.346008e+00
  1.874945e+01    1.276621e+00
  1.877224e+01    1.242143e+00
  1.879502e+01    1.450894e+00
  1.881780e+01    1.401897e+00
  1.884059e+01    1.389109e+00
  1.886337e+01    1.282905e+00
  1.888615e+01    1.294371e+00
  1.890893e+01    1.366192e+00
  1.893172e+01    1.408205e+00
  1.895450e+01    1.410775e+00
  1.897728e+01    1.381481e+00
  1.900007e+01    1.452055e+00
  1.902285e+01    1.504473e+00
  1.904563e+01    1.469191e+00
  1.906841e+01    1.374781e+00
  1.909120e+01    1.288208e+00
  1.911398e+01    1.274291e+00
  1.913676e+01    1.298015e+00
  1.915955e+01    1.370831e+00
  1.918233e+01    1.346266e+00
  1.920511e+01    1.284962e+00
  1.922789e+01    1.346855e+00
  1.925068e+01    1.363487e+00
  1.927346e+01    1.349502e+00
  1.929624e+01    1.333776e+00
  1.931902e+01    1.374860e+00
  1.934181e+01    1.325474e+00
  1.936459e+01    1.256707e+00
  1.938737e+01    1.270096e+00
  1.941016e+01    1.277615e+00
  1.943294e+01    1.373747e+00
  1.945572e+01    1.392912e+00
  1.947850e+01    1.342093e+00
  1.950129e+01    1.273252e+00
  1.952407e+01    1.224067e+00
  1.954685e+01    1.222070e+00
  1.956964e+01    1.204609e+00
  1.959242e+01    1.299235e+00
  1.961520e+01    1.241117e+00
  1.963798e+01    1.278190e+00
  1.966077e+01    1.179700e+00
  1.968355e+01    1.335844e+00
  1.970633e+01    1.349441e+00
  1.972912e+01    1.323125e+00
  1.975190e+01    1.362937e+00
  1.977468e+01    1.252606e+00
  1.979746e+01    1.215893e+00
  1.982025e+01    1.176835e+00
  1.984303e+01    1.318750e+00
  1.986581e+01    1.271239e+00
  1.988859e+01    1.277825e+00
  1.991138e+01    1.319957e+00
  1.993416e+01    1.364628e+00
  1.995694e+01    1.378906e+00
  1.997973e+01    1.416951e+00
  2.000251e+01    1.428113e+00
  2.002529e+01    1.335899e+00
  2.004807e+01    1.309013e+00
  2.007086e+01    1.322563e+00
  2.009364e+01    1.421743e+00
  2.011642e+01    1.431498e+00
  2.013921e+01    1.216986e+00
  2.016199e+01    1.197826e+00
  2.018477e+01    1.229922e+00
  2.020755e+01    1.291621e+00
  2.023034e+01    1.178712e+00
  2.025312e+01    1.203178e+00
  2.027590e+01    1.256992e+00
  2.029868e+01    1.349965e+00
  2.032147e+01    1.266916e+00
  2.034425e+01    1.206020e+00
  2.036703e+01    1.272393e+00
  2.038982e+01    1.241330e+00
  2.041260e+01    1.325183e+00
  2.043538e+01    1.339092e+00
  2.045816e+01    1.280090e+00
  2.048095e+01    1.312696e+00
  2.050373e+01    1.323893e+00
  2.052651e+01    1.313414e+00
  2.054930e+01    1.260040e+00
  2.057208e+01    1.303970e+00
  2.059486e+01    1.341715e+00
  2.061764e+01    1.383079e+00
  2.064043e+01    1.320812e+00
  2.066321e+01    1.309223e+00
  2.068599e+01    1.290591e+00
  2.070878e+01    1.185699e+00
  2.073156e+01    1.096516e+00
  2.075434e+01    1.147625e+00
  2.077712e+01    1.238717e+00
  2.079991e+01    1.244102e+00
  2.082269e+01    1.229438e+00
  2.084547e+01    1.363512e+00
  2.086825e+01    1.420484e+00
  2.089104e+01    1.247339e+00
  2.091382e+01    1.275635e+00
  2.093660e+01    1.322865e+00
  2.095939e+01    1.285984e+00
  2.098217e+01    1.219629e+00
  2.100495e+01    1.321662e+00
  2.102773e+01    1.309151e+00
  2.105052e+01    1.303283e+00
  2.107330e+01    1.404814e+00
  2.109608e+01    1.257324e+00
  2.111887e+01    1.222031e+00
  2.114165e+01    1.309209e+00
  2.116443e+01    1.320840e+00
  2.118721e+01    1.249765e+00
  2.121000e+01    1.318889e+00
  2.123278e+01    1.286354e+00
  2.125556e+01    1.214707e+00
  2.127835e+01    1.302100e+00
  2.130113e+01    1.267193e+00
  2.132391e+01    1.271939e+00
  2.134669e+01    1.393443e+00
  2.136948e+01    1.342493e+00
  2.139226e+01    1.314261e+00
  2.141504e+01    1.321665e+00
  2.143782e+01    1.209942e+00
  2.146061e+01    1.217805e+00
  2.148339e+01    1.248017e+00
  2.150617e+01    1.244050e+00
  2.152896e+01    1.282705e+00
  2.155174e+01    1.235669e+00
  2.157452e+01    1.207309e+00
  2.159730e+01    1.297485e+00
  2.162009e+01    1.331829e+00
  2.164287e+01    1.327355e+00
  2.166565e+01    1.210498e+00
  2.168844e+01    1.247858e+00
  2.171122e+01    1.246909e+00
  2.173400e+01    1.278575e+00
  2.175678e+01    1.231916e+00
  2.177957e+01    1.205550e+00
  2.180235e+01    1.268034e+00
  2.182513e+01    1.257127e+00
  2.184791e+01    1.265221e+00
  2.187070e+01    1.237382e+00
  2.189348e+01    1.299806e+00
  2.191626e+01    1.191673e+00
  2.193905e+01    1.239831e+00
  2.196183e+01    1.285079e+00
  2.198461e+01    1.219544e+00
  2.200739e+01    1.209550e+00
  2.203018e+01    1.117111e+00
  2.205296e+01    1.230963e+00
  2.207574e+01    1.190970e+00
  2.209853e+01    1.213102e+00
  2.212131e+01    1.235115e+00
  2.214409e+01    1.285698e+00
  2.216687e+01    1.321051e+00
  2.218966e+01    1.298891e+00
  2.221244e+01    1.249576e+00
  2.223522e+01    1.155967e+00
  2.225801e+01    1.167929e+00
  2.228079e+01    1.195095e+00
  2.230357e+01    1.169254e+00
  2.232635e+01    1.229035e+00
  2.234914e+01    1.102629e+00
  2.237192e+01    1.098315e+00
  2.239470e+01    1.165901e+00
  2.241748e+01    1.273003e+00
  2.244027e+01    1.279334e+00
  2.246305e+01    1.223997e+00
  2.248583e+01    1.131544e+00
  2.250862e+01    1.246340e+00
  2.253140e+01    1.212820e+00
  2.255418e+01    1.225398e+00
  2.257696e+01    1.252563e+00
  2.259975e+01    1.262910e+00
  2.262253e+01    1.112901e+00
  2.264531e+01    1.258130e+00
  2.266810e+01    1.300035e+00
  2.269088e+01    1.295338e+00
  2.271366e+01    1.251553e+00
  2.273644e+01    1.231750e+00
  2.275923e+01    1.264163e+00
  2.278201e+01    1.176389e+00
  2.280479e+01    1.155867e+00
  2.282758e+01    1.174625e+00
  2.285036e+01    1.161548e+00
  2.287314e+01    1.203429e+00
  2.289592e+01    1.324365e+00
  2.291871e+01    1.242064e+00
  2.294149e+01    1.335333e+00
  2.296427e+01    1.274524e+00
  2.298705e+01    1.284763e+00
  2.300984e+01    1.294065e+00
  2.303262e+01    1.251623e+00
  2.305540e+01    1.226571e+00
  2.307819e+01    1.303115e+00
  2.310097e+01    1.182783e+00
  2.312375e+01    1.141961e+00
  2.314653e+01    1.214115e+00
  2.316932e+01    1.232168e+00
  2.319210e+01    1.171427e+00
  2.321488e+01    1.161822e+00
  2.323767e+01    1.153309e+00
  2.326045e+01    1.244203e+00
  2.328323e+01    1.290534e+00
  2.330601e+01    1.308113e+00
  2.332880e+01    1.188178e+00
  2.335158e+01    1.221152e+00
  2.337436e+01    1.195869e+00
  2.339714e+01    1.186060e+00
  2.341993e+01    1.252744e+00
  2.344271e+01    1.245895e+00
  2.346549e+01    1.183484e+00
  2.348828e+01    1.256295e+00
  2.351106e+01    1.225099e+00
  2.353384e+01    1.309412e+00
  2.355662e+01    1.283843e+00
  2.357941e+01    1.280747e+00
  2.360219e+01    1.278107e+00
  2.362497e+01    1.257857e+00
  2.364776e+01    1.149028e+00
  2.367054e+01    1.173815e+00
  2.369332e+01    1.212859e+00
  2.371610e+01    1.278598e+00
  2.373889e+01    1.238399e+00
  2.376167e+01    1.230929e+00
  2.378445e+01    1.298263e+00
  2.380724e+01    1.157726e+00
  2.383002e+01    1.150820e+00
  2.385280e+01    1.220600e+00
  2.387558e+01    1.237251e+00
  2.389837e+01    1.234758e+00
  2.392115e+01    1.293274e+00
  2.394393e+01    1.282303e+00
  2.396671e+01    1.278001e+00
  2.398950e+01    1.240693e+00
  2.401228e+01    1.337379e+00
  2.403506e+01    1.242221e+00
  2.405785e+01    1.289089e+00
  2.408063e+01    1.293165e+00
  2.410341e+01    1.131945e+00
  2.412619e+01    1.283736e+00
  2.414898e+01    1.296866e+00
  2.417176e+01    1.202717e+00
  2.419454e+01    1.220311e+00
  2.421733e+01    1.230959e+00
  2.424011e+01    1.284178e+00
  2.426289e+01    1.218764e+00
  2.428567e+01    1.256238e+00
  2.430846e+01    1.248458e+00
  2.433124e+01    1.251207e+00
  2.435402e+01    1.308552e+00
  2.437681e+01    1.212333e+00
  2.439959e+01    1.219791e+00
  2.442237e+01    1.255690e+00
  2.444515e+01    1.198115e+00
  2.446794e+01    1.133697e+00
  2.449072e+01    1.156611e+00
  2.451350e+01    1.193333e+00
  2.453628e+01    1.206594e+00
  2.455907e+01    1.229851e+00
  2.458185e+01    1.206326e+00
  2.460463e+01    1.203561e+00
  2.462742e+01    1.197916e+00
  2.465020e+01    1.212678e+00
  2.467298e+01    1.248580e+00
  2.469576e+01    1.155511e+00
  2.471855e+01    1.220449e+00
  2.474133e+01    1.225328e+00
  2.476411e+01    1.135732e+00
  2.478690e+01    1.301868e+00
  2.480968e+01    1.204026e+00
  2.483246e+01    1.258466e+00
  2.485524e+01    1.265923e+00
  2.487803e+01    1.232526e+00
  2.490081e+01    1.241131e+00
  2.492359e+01    1.328812e+00
  2.494637e+01    1.225097e+00
  2.496916e+01    1.236345e+00
  2.499194e+01    1.162794e+00
  2.501472e+01    1.194966e+00
  2.503751e+01    1.248684e+00
  2.506029e+01    1.235862e+00
  2.508307e+01    1.229883e+00
  2.510585e+01    1.250170e+00
  2.512864e+01    1.194315e+00
  2.515142e+01    1.228861e+00
  2.517420e+01    1.246493e+00
  2.519699e+01    1.258252e+00
  2.521977e+01    1.243661e+00
  2.524255e+01    1.230594e+00
  2.526533e+01    1.262027e+00
  2.528812e+01    1.252124e+00
  2.531090e+01    1.197939e+00
  2.533368e+01    1.250824e+00
  2.535647e+01    1.260680e+00
  2.537925e+01    1.269612e+00
  2.540203e+01    1.277281e+00
  2.542481e+01    1.224247e+00
  2.544760e+01    1.195117e+00
  2.547038e+01    1.239114e+00
  2.549316e+01    1.226650e+00
  2.551594e+01    1.145251e+00
  2.553873e+01    1.255807e+00
  2.556151e+01    1.167058e+00
  2.558429e+01    1.251054e+00
  2.560708e+01    1.251075e+00
  2.562986e+01    1.272084e+00
  2.565264e+01    1.190666e+00
  2.567542e+01    1.209740e+00
  2.569821e+01    1.267915e+00
  2.572099e+01    1.309137e+00
  2.574377e+01    1.199509e+00
  2.576656e+01    1.225219e+00
  2.578934e+01    1.144508e+00
  2.581212e+01    1.230201e+00
  2.583490e+01    1.222890e+00
  2.585769e+01    1.188904e+00
  2.588047e+01    1.230564e+00
  2.590325e+01    1.278092e+00
  2.592604e+01    1.246653e+00
  2.594882e+01    1.173789e+00
  2.597160e+01    1.303921e+00
  2.599438e+01    1.298216e+00
  2.601717e+01    1.251387e+00
  2.603995e+01    1.257894e+00
  2.606273e+01    1.255707e+00
  2.608551e+01    1.297754e+00
  2.610830e+01    1.285985e+00
  2.613108e+01    1.258129e+00
  2.615386e+01    1.215916e+00
  2.617665e+01    1.294173e+00
  2.619943e+01    1.256483e+00
  2.622221e+01    1.204816e+00
  2.624499e+01    1.274198e+00
  2.626778e+01    1.236523e+00
  2.629056e+01    1.260962e+00
  2.631334e+01    1.338163e+00
  2.633613e+01    1.341865e+00
  2.635891e+01    1.237547e+00
  2.638169e+01    1.199289e+00
  2.640447e+01    1.187489e+00
  2.642726e+01    1.212318e+00
  2.645004e+01    1.191291e+00
  2.647282e+01    1.238412e+00
  2.649560e+01    1.315304e+00
  2.651839e+01    1.310321e+00
  2.654117e+01    1.250831e+00
  2.656395e+01    1.232291e+00
  2.658674e+01    1.235496e+00
  2.660952e+01    1.236471e+00
  2.663230e+01    1.228099e+00
  2.665508e+01    1.282607e+00
  2.667787e+01    1.245377e+00
  2.670065e+01    1.262506e+00
  2.672343e+01    1.308445e+00
  2.674622e+01    1.323528e+00
  2.676900e+01    1.287476e+00
  2.679178e+01    1.290580e+00
  2.681456e+01    1.220445e+00
  2.683735e+01    1.238897e+00
  2.686013e+01    1.200796e+00
  2.688291e+01    1.301728e+00
  2.690570e+01    1.264653e+00
  2.692848e+01    1.308426e+00
  2.695126e+01    1.226002e+00
  2.697404e+01    1.285136e+00
  2.699683e+01    1.254237e+00
  2.701961e+01    1.280130e+00
  2.704239e+01    1.305172e+00
  2.706517e+01    1.256013e+00
  2.708796e+01    1.283826e+00
  2.711074e+01    1.240246e+00
  2.713352e+01    1.328596e+00
  2.715631e+01    1.359447e+00
  2.717909e+01    1.349363e+00
  2.720187e+01    1.296540e+00
  2.722465e+01    1.314733e+00
  2.724744e+01    1.320123e+00
  2.727022e+01    1.371258e+00
  2.729300e+01    1.404557e+00
  2.731579e+01    1.334089e+00
  2.733857e+01    1.462991e+00
  2.736135e+01    1.420783e+00
  2.738413e+01    1.443257e+00
  2.740692e+01    1.376163e+00
  2.742970e+01    1.466283e+00
  2.745248e+01    1.483579e+00
  2.747527e+01    1.483392e+00
  2.749805e+01    1.506650e+00
  2.752083e+01    1.504403e+00
  2.754361e+01    1.465464e+00
  2.756640e+01    1.448958e+00
  2.758918e+01    1.418519e+00
  2.761196e+01    1.428690e+00
  2.763474e+01    1.397921e+00
  2.765753e+01    1.444444e+00
  2.768031e+01    1.418701e+00
  2.770309e+01    1.426800e+00
  2.772588e+01    1.422371e+00
  2.774866e+01    1.427997e+00
  2.777144e+01    1.417928e+00
  2.779422e+01    1.356483e+00
  2.781701e+01    1.407429e+00
  2.783979e+01    1.330795e+00
  2.786257e+01    1.361023e+00
  2.788536e+01    1.440669e+00
  2.790814e+01    1.440203e+00
  2.793092e+01    1.373141e+00
  2.795370e+01    1.374387e+00
  2.797649e+01    1.355175e+00
  2.799927e+01    1.373268e+00
  2.802205e+01    1.444606e+00
  2.804483e+01    1.343114e+00
  2.806762e+01    1.420636e+00
  2.809040e+01    1.354695e+00
  2.811318e+01    1.415842e+00
  2.813597e+01    1.453897e+00
  2.815875e+01    1.474546e+00
  2.818153e+01    1.403703e+00
  2.820431e+01    1.485060e+00
  2.822710e+01    1.472171e+00
  2.824988e+01    1.447014e+00
  2.827266e+01    1.426288e+00
  2.829545e+01    1.451869e+00
  2.831823e+01    1.497153e+00
  2.834101e+01    1.491105e+00
  2.836379e+01    1.456969e+00
  2.838658e+01    1.505029e+00
  2.840936e+01    1.505688e+00
  2.843214e+01    1.455904e+00
  2.845493e+01    1.389909e+00
  2.847771e+01    1.402285e+00
  2.850049e+01    1.498998e+00
  2.852327e+01    1.487115e+00
  2.854606e+01    1.466718e+00
  2.856884e+01    1.473068e+00
  2.859162e+01    1.403498e+00
  2.861440e+01    1.438308e+00
  2.863719e+01    1.460986e+00
  2.865997e+01    1.494900e+00
  2.868275e+01    1.554711e+00
  2.870554e+01    1.480209e+00
  2.872832e+01    1.445855e+00
  2.875110e+01    1.432978e+00
  2.877388e+01    1.392168e+00
  2.879667e+01    1.480406e+00
  2.881945e+01    1.395373e+00
  2.884223e+01    1.484904e+00
  2.886502e+01    1.461509e+00
  2.888780e+01    1.456436e+00
  2.891058e+01    1.441425e+00
  2.893336e+01    1.440570e+00
  2.895615e+01    1.415948e+00
  2.897893e+01    1.497557e+00
  2.900171e+01    1.417814e+00
  2.902450e+01    1.448491e+00
  2.904728e+01    1.404647e+00
  2.907006e+01    1.392468e+00
  2.909284e+01    1.432695e+00
  2.911563e+01    1.471715e+00
  2.913841e+01    1.503238e+00
  2.916119e+01    1.449228e+00
  2.918397e+01    1.454759e+00
  2.920676e+01    1.469397e+00
  2.922954e+01    1.466053e+00
  2.925232e+01    1.499014e+00
  2.927511e+01    1.426026e+00
  2.929789e+01    1.403087e+00
  2.932067e+01    1.437181e+00
  2.934345e+01    1.457477e+00
  2.936624e+01    1.442676e+00
  2.938902e+01    1.480797e+00
  2.941180e+01    1.475226e+00
  2.943459e+01    1.544378e+00
  2.945737e+01    1.456949e+00
  2.948015e+01    1.414819e+00
  2.950293e+01    1.518817e+00
  2.952572e+01    1.502816e+00
  2.954850e+01    1.428438e+00
  2.957128e+01    1.389411e+00
  2.959407e+01    1.414248e+00
  2.961685e+01    1.339041e+00
  2.963963e+01    1.401454e+00
  2.966241e+01    1.455533e+00
  2.968520e+01    1.412421e+00
  2.970798e+01    1.488491e+00
  2.973076e+01    1.397602e+00
  2.975354e+01    1.337512e+00
  2.977633e+01    1.437809e+00
  2.979911e+01    1.437572e+00
  2.982189e+01    1.379197e+00
  2.984468e+01    1.366830e+00
  2.986746e+01    1.361345e+00
  2.989024e+01    1.354077e+00
  2.991302e+01    1.422979e+00
  2.993581e+01    1.375815e+00
  2.995859e+01    1.345843e+00
  2.998137e+01    1.413938e+00
  3.000416e+01    1.361870e+00
  3.002694e+01    1.346390e+00
  3.004972e+01    1.273250e+00
  3.007250e+01    1.357938e+00
  3.009529e+01    1.290015e+00
  3.011807e+01    1.284122e+00
  3.014085e+01    1.375541e+00
  3.016363e+01    1.349213e+00
  3.018642e+01    1.361818e+00
  3.020920e+01    1.349283e+00
  3.023198e+01    1.264335e+00
  3.025477e+01    1.256108e+00
  3.027755e+01    1.276743e+00
  3.030033e+01    1.290660e+00
  3.032311e+01    1.287674e+00
  3.034590e+01    1.243405e+00
  3.036868e+01    1.235674e+00
  3.039146e+01    1.343259e+00
  3.041425e+01    1.402028e+00
  3.043703e+01    1.366217e+00
  3.045981e+01    1.259535e+00
  3.048259e+01    1.340976e+00
  3.050538e+01    1.254748e+00
  3.052816e+01    1.280794e+00
  3.055094e+01    1.312531e+00
  3.057373e+01    1.344626e+00
  3.059651e+01    1.265568e+00
  3.061929e+01    1.189041e+00
  3.064207e+01    1.237599e+00
  3.066486e+01    1.295657e+00
  3.068764e+01    1.264566e+00
  3.071042e+01    1.283390e+00
  3.073320e+01    1.200387e+00
  3.075599e+01    1.266246e+00
  3.077877e+01    1.164649e+00
  3.080155e+01    1.311239e+00
  3.082434e+01    1.247572e+00
  3.084712e+01    1.313487e+00
  3.086990e+01    1.270947e+00
  3.089268e+01    1.210514e+00
  3.091547e+01    1.217823e+00
  3.093825e+01    1.193000e+00
  3.096103e+01    1.259860e+00
  3.098382e+01    1.162804e+00
  3.100660e+01    1.195598e+00
  3.102938e+01    1.272305e+00
  3.105216e+01    1.232816e+00
  3.107495e+01    1.238070e+00
  3.109773e+01    1.234810e+00
  3.112051e+01    1.196500e+00
  3.114330e+01    1.274779e+00
  3.116608e+01    1.220026e+00
  3.118886e+01    1.168475e+00
  3.121164e+01    1.176933e+00
  3.123443e+01    1.245056e+00
  3.125721e+01    1.175589e+00
  3.127999e+01    1.182940e+00
  3.130277e+01    1.240516e+00
  3.132556e+01    1.249947e+00
  3.134834e+01    1.155643e+00
  3.137112e+01    1.284316e+00
  3.139391e+01    1.219047e+00
  3.141669e+01    1.315109e+00
  3.143947e+01    1.307324e+00
  3.146225e+01    1.212923e+00
  3.148504e+01    1.272268e+00
  3.150782e+01    1.259722e+00
  3.153060e+01    1.181832e+00
  3.155339e+01    1.221025e+00
  3.157617e+01    1.253255e+00
  3.159895e+01    1.241094e+00
  3.162173e+01    1.156749e+00
  3.164452e+01    1.243723e+00
  3.166730e+01    1.219273e+00
  3.169008e+01    1.226817e+00
  3.171286e+01    1.333256e+00
  3.173565e+01    1.278688e+00
  3.175843e+01    1.241610e+00
  3.178121e+01    1.354344e+00
  3.180400e+01    1.291301e+00
  3.182678e+01    1.270592e+00
  3.184956e+01    1.230477e+00
  3.187234e+01    1.221661e+00
  3.189513e+01    1.230375e+00
  3.191791e+01    1.139822e+00
  3.194069e+01    1.224820e+00
  3.196348e+01    1.191742e+00
  3.198626e+01    1.270501e+00
  3.200904e+01    1.257498e+00
  3.203182e+01    1.305526e+00
  3.205461e+01    1.163030e+00
  3.207739e+01    1.231834e+00
  3.210017e+01    1.169185e+00
  3.212296e+01    1.158844e+00
  3.214574e+01    1.265753e+00
  3.216852e+01    1.154255e+00
  3.219130e+01    1.232205e+00
  3.221409e+01    1.237463e+00
  3.223687e+01    1.279414e+00
  3.225965e+01    1.246920e+00
  3.228243e+01    1.283483e+00
  3.230522e+01    1.187654e+00
  3.232800e+01    1.137389e+00
  3.235078e+01    1.185019e+00
  3.237357e+01    1.235866e+00
  3.239635e+01    1.234331e+00
  3.241913e+01    1.247500e+00
  3.244191e+01    1.236836e+00
  3.246470e+01    1.267066e+00
  3.248748e+01    1.185229e+00
  3.251026e+01    1.284590e+00
  3.253305e+01    1.197436e+00
  3.255583e+01    1.257620e+00
  3.257861e+01    1.201543e+00
  3.260139e+01    1.328842e+00
  3.262418e+01    1.213708e+00
  3.264696e+01    1.207426e+00
  3.266974e+01    1.284189e+00
  3.269253e+01    1.352006e+00
  3.271531e+01    1.188509e+00
  3.273809e+01    1.278567e+00
  3.276087e+01    1.193152e+00
  3.278366e+01    1.186280e+00
  3.280644e+01    1.220052e+00
  3.282922e+01    1.297461e+00
  3.285200e+01    1.101118e+00
  3.287479e+01    1.247537e+00
  3.289757e+01    1.316072e+00
  3.292035e+01    1.195062e+00
  3.294314e+01    1.274147e+00
  3.296592e+01    1.086712e+00
  3.298870e+01    1.360642e+00
  3.301148e+01    1.302243e+00
  3.303427e+01    1.302522e+00
  3.305705e+01    1.517017e+00
  3.307983e+01    1.324520e+00
  3.310262e+01    1.544546e+00
  3.312540e+01    1.392630e+00
  3.314818e+01    1.384602e+00
  3.317096e+01    1.584856e+00
  3.319375e+01    1.722340e+00
  3.321653e+01    1.202683e+00
  3.323931e+01    1.362691e+00
  3.326209e+01    1.084265e+00
  3.328488e+01    1.026077e+00
  3.330766e+01    1.332856e+00
  3.333044e+01    1.161344e+00
  3.335323e+01    1.173331e+00
  3.337601e+01    1.114442e+00
  3.339879e+01    3.577763e-01
  3.342157e+01    8.368092e-01
  3.344436e+01    1.083551e+00
  3.346714e+01    9.444122e-01
  3.348992e+01    8.986969e-01
  3.351271e+01    8.986969e-01
  3.353549e+01    0.000000e+00
  3.355827e+01    0.000000e+00
  3.358105e+01    0.000000e+00
  3.360384e+01    0.000000e+00
  3.362662e+01    0.000000e+00
  3.364940e+01    0.000000e+00
  3.367219e+01    0.000000e+00
  3.369497e+01    0.000000e+00
  3.371775e+01    0.000000e+00
