# == pyFAI calibration ==
# Distance Sample to Detector: 0.21311058206280517 m
# PONI: 2.037e-01, 1.993e-01 m
# Rotations: -0.005459 0.000134 0.000000 rad
# 
# == Fit2d calibration ==
# Distance Sample-beamCenter: 213.114 mm
# Center: x=1002.134, y=1018.730 pix
# Tilt: 0.313 deg  TiltPlanRot: 1.411 deg
# 
# Detector Perkin detector	 PixelSize= 2.000e-04, 2.000e-04 m
#    Detector has a mask: False 
#    Detector has a dark current: False 
#    detector has a flat field: False 
# 
# Wavelength: 1.675e-11 m
# Mask applied: provided
# Dark current applied: False
# Flat field applied: False
# Polarization factor: None
# Normalization factor: 1.0
# --> data/chi_bkgsub_true/C_Tatania1-48.0-average.chi
#        q_A^-1             I 
  2.199784e-02    7.099786e-01
  4.478064e-02    1.042140e+00
  6.756343e-02    1.557848e+00
  9.034623e-02    1.509845e+00
  1.131290e-01    1.983207e+00
  1.359118e-01    1.778384e+00
  1.586946e-01    1.935181e+00
  1.814774e-01    1.834087e+00
  2.042602e-01    1.796313e+00
  2.270430e-01    2.386726e+00
  2.498258e-01    4.377864e+00
  2.726086e-01    1.041354e+01
  2.953914e-01    3.343189e+01
  3.181742e-01    7.147829e+01
  3.409570e-01    8.132815e+01
  3.637398e-01    5.402210e+01
  3.865226e-01    3.813848e+01
  4.093054e-01    4.337693e+01
  4.320881e-01    3.445144e+01
  4.548709e-01    2.029533e+01
  4.776537e-01    1.196052e+01
  5.004365e-01    9.721621e+00
  5.232193e-01    9.144095e+00
  5.460021e-01    1.005653e+01
  5.687849e-01    1.229557e+01
  5.915677e-01    1.369247e+01
  6.143505e-01    1.326732e+01
  6.371333e-01    1.220943e+01
  6.599161e-01    1.168929e+01
  6.826989e-01    1.184829e+01
  7.054817e-01    1.180956e+01
  7.282645e-01    1.098927e+01
  7.510473e-01    1.095484e+01
  7.738301e-01    1.159401e+01
  7.966129e-01    1.178343e+01
  8.193956e-01    1.197212e+01
  8.421784e-01    1.145864e+01
  8.649612e-01    1.085555e+01
  8.877440e-01    1.130676e+01
  9.105268e-01    1.130636e+01
  9.333096e-01    1.058051e+01
  9.560924e-01    1.050574e+01
  9.788752e-01    1.031278e+01
  1.001658e+00    1.036931e+01
  1.024441e+00    1.038400e+01
  1.047224e+00    9.987282e+00
  1.070006e+00    9.341886e+00
  1.092789e+00    9.234327e+00
  1.115572e+00    9.311637e+00
  1.138355e+00    9.078236e+00
  1.161138e+00    9.093762e+00
  1.183920e+00    9.900872e+00
  1.206703e+00    1.015503e+01
  1.229486e+00    1.045961e+01
  1.252269e+00    1.099693e+01
  1.275052e+00    1.086262e+01
  1.297834e+00    1.070133e+01
  1.320617e+00    1.041483e+01
  1.343400e+00    1.111483e+01
  1.366183e+00    1.179620e+01
  1.388966e+00    1.212810e+01
  1.411748e+00    1.210997e+01
  1.434531e+00    1.160016e+01
  1.457314e+00    1.129522e+01
  1.480097e+00    1.110329e+01
  1.502879e+00    1.111415e+01
  1.525662e+00    1.161766e+01
  1.548445e+00    1.138604e+01
  1.571228e+00    1.092941e+01
  1.594011e+00    1.115550e+01
  1.616793e+00    1.172551e+01
  1.639576e+00    1.262184e+01
  1.662359e+00    1.397790e+01
  1.685142e+00    1.534001e+01
  1.707925e+00    1.913022e+01
  1.730707e+00    2.465086e+01
  1.753490e+00    3.134604e+01
  1.776273e+00    3.488807e+01
  1.799056e+00    3.308096e+01
  1.821839e+00    2.709299e+01
  1.844621e+00    1.984876e+01
  1.867404e+00    1.413174e+01
  1.890187e+00    1.054142e+01
  1.912970e+00    8.205935e+00
  1.935753e+00    6.822232e+00
  1.958535e+00    6.008318e+00
  1.981318e+00    5.715451e+00
  2.004101e+00    5.212971e+00
  2.026884e+00    4.977638e+00
  2.049667e+00    5.022348e+00
  2.072449e+00    5.324688e+00
  2.095232e+00    5.827141e+00
  2.118015e+00    5.674208e+00
  2.140798e+00    5.332223e+00
  2.163581e+00    4.909044e+00
  2.186363e+00    4.103801e+00
  2.209146e+00    3.279290e+00
  2.231929e+00    3.253981e+00
  2.254712e+00    3.543214e+00
  2.277494e+00    3.913261e+00
  2.300277e+00    3.788980e+00
  2.323060e+00    3.756014e+00
  2.345843e+00    3.586571e+00
  2.368626e+00    3.293292e+00
  2.391408e+00    3.399501e+00
  2.414191e+00    3.411956e+00
  2.436974e+00    4.116353e+00
  2.459757e+00    4.315165e+00
  2.482540e+00    4.159432e+00
  2.505322e+00    3.325372e+00
  2.528105e+00    2.955007e+00
  2.550888e+00    3.363235e+00
  2.573671e+00    3.738656e+00
  2.596454e+00    4.722062e+00
  2.619236e+00    5.416928e+00
  2.642019e+00    5.462946e+00
  2.664802e+00    5.277188e+00
  2.687585e+00    4.756546e+00
  2.710368e+00    3.897141e+00
  2.733150e+00    3.900274e+00
  2.755933e+00    3.627550e+00
  2.778716e+00    3.243510e+00
  2.801499e+00    3.374624e+00
  2.824282e+00    3.183193e+00
  2.847064e+00    3.106710e+00
  2.869847e+00    3.056604e+00
  2.892630e+00    2.909661e+00
  2.915413e+00    2.649880e+00
  2.938196e+00    2.506159e+00
  2.960978e+00    2.275341e+00
  2.983761e+00    2.361295e+00
  3.006544e+00    2.135189e+00
  3.029327e+00    2.180926e+00
  3.052110e+00    2.216531e+00
  3.074892e+00    2.407730e+00
  3.097675e+00    2.884488e+00
  3.120458e+00    3.301014e+00
  3.143241e+00    3.237712e+00
  3.166023e+00    2.918149e+00
  3.188806e+00    2.642668e+00
  3.211589e+00    3.073558e+00
  3.234372e+00    4.158566e+00
  3.257155e+00    5.235295e+00
  3.279937e+00    6.552015e+00
  3.302720e+00    7.481081e+00
  3.325503e+00    7.158811e+00
  3.348286e+00    5.779871e+00
  3.371069e+00    4.460474e+00
  3.393851e+00    3.512713e+00
  3.416634e+00    3.166372e+00
  3.439417e+00    3.260413e+00
  3.462200e+00    3.767225e+00
  3.484983e+00    4.152935e+00
  3.507765e+00    3.838779e+00
  3.530548e+00    3.130501e+00
  3.553331e+00    2.584663e+00
  3.576114e+00    3.079822e+00
  3.598897e+00    3.314265e+00
  3.621679e+00    3.897607e+00
  3.644462e+00    4.763596e+00
  3.667245e+00    5.468369e+00
  3.690028e+00    6.551628e+00
  3.712811e+00    7.417669e+00
  3.735593e+00    7.345654e+00
  3.758376e+00    6.924363e+00
  3.781159e+00    6.162534e+00
  3.803942e+00    5.516824e+00
  3.826725e+00    4.950899e+00
  3.849507e+00    4.238383e+00
  3.872290e+00    3.818736e+00
  3.895073e+00    3.512599e+00
  3.917856e+00    3.435725e+00
  3.940638e+00    3.197731e+00
  3.963421e+00    3.166608e+00
  3.986204e+00    3.434323e+00
  4.008987e+00    3.447175e+00
  4.031770e+00    3.521423e+00
  4.054552e+00    4.204385e+00
  4.077335e+00    4.551322e+00
  4.100118e+00    4.736985e+00
  4.122901e+00    4.492799e+00
  4.145684e+00    3.729978e+00
  4.168466e+00    3.572384e+00
  4.191249e+00    4.037004e+00
  4.214032e+00    4.441198e+00
  4.236815e+00    4.693216e+00
  4.259598e+00    4.454489e+00
  4.282380e+00    4.073798e+00
  4.305163e+00    3.701937e+00
  4.327946e+00    3.459003e+00
  4.350729e+00    2.818559e+00
  4.373512e+00    2.602434e+00
  4.396294e+00    2.884528e+00
  4.419077e+00    2.877936e+00
  4.441860e+00    2.835663e+00
  4.464643e+00    2.867630e+00
  4.487426e+00    3.140399e+00
  4.510208e+00    2.894486e+00
  4.532991e+00    2.885067e+00
  4.555774e+00    3.149565e+00
  4.578557e+00    3.191185e+00
  4.601340e+00    3.196780e+00
  4.624122e+00    3.289557e+00
  4.646905e+00    3.360002e+00
  4.669688e+00    3.519507e+00
  4.692471e+00    3.215713e+00
  4.715253e+00    2.964132e+00
  4.738036e+00    2.562794e+00
  4.760819e+00    2.609651e+00
  4.783602e+00    2.463554e+00
  4.806385e+00    2.273103e+00
  4.829167e+00    2.310359e+00
  4.851950e+00    2.605324e+00
  4.874733e+00    2.860204e+00
  4.897516e+00    2.935220e+00
  4.920299e+00    2.912043e+00
  4.943081e+00    2.773770e+00
  4.965864e+00    2.958062e+00
  4.988647e+00    2.802555e+00
  5.011430e+00    2.656929e+00
  5.034213e+00    2.523539e+00
  5.056995e+00    2.478663e+00
  5.079778e+00    2.530277e+00
  5.102561e+00    2.390340e+00
  5.125344e+00    2.181710e+00
  5.148127e+00    2.115085e+00
  5.170909e+00    2.213410e+00
  5.193692e+00    2.489202e+00
  5.216475e+00    2.216254e+00
  5.239258e+00    2.354038e+00
  5.262041e+00    2.493091e+00
  5.284823e+00    2.305427e+00
  5.307606e+00    2.303115e+00
  5.330389e+00    2.556150e+00
  5.353172e+00    2.519255e+00
  5.375955e+00    2.554713e+00
  5.398737e+00    2.577270e+00
  5.421520e+00    2.416835e+00
  5.444303e+00    2.260763e+00
  5.467086e+00    2.047355e+00
  5.489869e+00    1.989414e+00
  5.512651e+00    2.142059e+00
  5.535434e+00    2.091713e+00
  5.558217e+00    2.022190e+00
  5.581000e+00    1.721212e+00
  5.603782e+00    1.366569e+00
  5.626565e+00    1.406800e+00
  5.649348e+00    1.460287e+00
  5.672131e+00    1.788644e+00
  5.694914e+00    1.813129e+00
  5.717696e+00    1.764347e+00
  5.740479e+00    1.819757e+00
  5.763262e+00    1.918818e+00
  5.786045e+00    1.942629e+00
  5.808828e+00    1.616016e+00
  5.831610e+00    1.844920e+00
  5.854393e+00    1.816576e+00
  5.877176e+00    1.899398e+00
  5.899959e+00    2.089731e+00
  5.922742e+00    2.308955e+00
  5.945524e+00    2.313653e+00
  5.968307e+00    2.336598e+00
  5.991090e+00    2.486384e+00
  6.013873e+00    2.360749e+00
  6.036656e+00    2.360786e+00
  6.059438e+00    2.332888e+00
  6.082221e+00    2.240572e+00
  6.105004e+00    2.285815e+00
  6.127787e+00    2.297400e+00
  6.150570e+00    2.257847e+00
  6.173352e+00    2.361747e+00
  6.196135e+00    2.200573e+00
  6.218918e+00    1.993715e+00
  6.241701e+00    2.061021e+00
  6.264484e+00    2.125913e+00
  6.287266e+00    2.135118e+00
  6.310049e+00    2.087084e+00
  6.332832e+00    2.119145e+00
  6.355615e+00    2.105172e+00
  6.378397e+00    1.813862e+00
  6.401180e+00    2.066447e+00
  6.423963e+00    1.988418e+00
  6.446746e+00    1.863531e+00
  6.469529e+00    1.867659e+00
  6.492311e+00    1.877859e+00
  6.515094e+00    2.014906e+00
  6.537877e+00    1.947306e+00
  6.560660e+00    2.008538e+00
  6.583443e+00    2.061576e+00
  6.606225e+00    2.114984e+00
  6.629008e+00    2.312756e+00
  6.651791e+00    2.304692e+00
  6.674574e+00    2.097279e+00
  6.697357e+00    2.090308e+00
  6.720139e+00    2.095554e+00
  6.742922e+00    2.068349e+00
  6.765705e+00    1.901175e+00
  6.788488e+00    2.104226e+00
  6.811271e+00    2.205239e+00
  6.834053e+00    2.250781e+00
  6.856836e+00    2.249292e+00
  6.879619e+00    2.124081e+00
  6.902402e+00    2.028829e+00
  6.925185e+00    2.075490e+00
  6.947967e+00    2.171032e+00
  6.970750e+00    2.295726e+00
  6.993533e+00    2.336597e+00
  7.016316e+00    2.409012e+00
  7.039099e+00    2.250015e+00
  7.061881e+00    2.235232e+00
  7.084664e+00    2.268418e+00
  7.107447e+00    2.266987e+00
  7.130230e+00    2.199145e+00
  7.153013e+00    2.166729e+00
  7.175795e+00    2.085382e+00
  7.198578e+00    2.025592e+00
  7.221361e+00    2.019574e+00
  7.244144e+00    1.859907e+00
  7.266926e+00    2.028105e+00
  7.289709e+00    2.147685e+00
  7.312492e+00    2.099635e+00
  7.335275e+00    2.016356e+00
  7.358058e+00    1.976615e+00
  7.380840e+00    2.153467e+00
  7.403623e+00    2.128975e+00
  7.426406e+00    2.113071e+00
  7.449189e+00    2.229470e+00
  7.471972e+00    2.185440e+00
  7.494754e+00    2.124595e+00
  7.517537e+00    1.948295e+00
  7.540320e+00    2.151993e+00
  7.563103e+00    2.225586e+00
  7.585886e+00    2.082624e+00
  7.608668e+00    2.014570e+00
  7.631451e+00    2.099215e+00
  7.654234e+00    2.021080e+00
  7.677017e+00    2.019948e+00
  7.699800e+00    1.902366e+00
  7.722582e+00    1.905766e+00
  7.745365e+00    2.018599e+00
  7.768148e+00    2.077030e+00
  7.790931e+00    2.058619e+00
  7.813714e+00    2.055358e+00
  7.836496e+00    2.004629e+00
  7.859279e+00    1.987285e+00
  7.882062e+00    2.101331e+00
  7.904845e+00    2.362201e+00
  7.927628e+00    2.208967e+00
  7.950410e+00    2.054151e+00
  7.973193e+00    1.894858e+00
  7.995976e+00    1.914964e+00
  8.018759e+00    1.989141e+00
  8.041541e+00    1.985691e+00
  8.064324e+00    1.896481e+00
  8.087107e+00    1.849122e+00
  8.109890e+00    1.869605e+00
  8.132673e+00    1.770752e+00
  8.155455e+00    1.669779e+00
  8.178238e+00    1.637143e+00
  8.201021e+00    1.808589e+00
  8.223804e+00    1.914148e+00
  8.246587e+00    1.933303e+00
  8.269369e+00    1.955007e+00
  8.292152e+00    2.035311e+00
  8.314935e+00    1.858606e+00
  8.337718e+00    1.964515e+00
  8.360501e+00    2.182826e+00
  8.383283e+00    2.174511e+00
  8.406066e+00    2.000015e+00
  8.428849e+00    1.980184e+00
  8.451632e+00    2.096039e+00
  8.474415e+00    1.900906e+00
  8.497197e+00    1.737054e+00
  8.519980e+00    1.773036e+00
  8.542763e+00    1.880376e+00
  8.565546e+00    1.916823e+00
  8.588329e+00    1.907632e+00
  8.611111e+00    1.975239e+00
  8.633894e+00    1.973827e+00
  8.656677e+00    1.779342e+00
  8.679460e+00    1.711114e+00
  8.702243e+00    1.733715e+00
  8.725025e+00    1.865993e+00
  8.747808e+00    1.870176e+00
  8.770591e+00    1.792484e+00
  8.793374e+00    1.865149e+00
  8.816156e+00    1.778929e+00
  8.838939e+00    1.745061e+00
  8.861722e+00    1.786791e+00
  8.884505e+00    1.890979e+00
  8.907288e+00    1.852900e+00
  8.930070e+00    1.705084e+00
  8.952853e+00    1.743215e+00
  8.975636e+00    1.801631e+00
  8.998419e+00    1.965656e+00
  9.021202e+00    1.867935e+00
  9.043984e+00    1.807549e+00
  9.066767e+00    1.767983e+00
  9.089550e+00    1.878186e+00
  9.112333e+00    1.747563e+00
  9.135116e+00    1.778109e+00
  9.157898e+00    1.757174e+00
  9.180681e+00    1.811099e+00
  9.203464e+00    1.679703e+00
  9.226247e+00    1.699612e+00
  9.249030e+00    1.822650e+00
  9.271812e+00    1.665000e+00
  9.294595e+00    1.699858e+00
  9.317378e+00    1.822625e+00
  9.340161e+00    1.809819e+00
  9.362944e+00    1.714270e+00
  9.385726e+00    1.846441e+00
  9.408509e+00    1.880963e+00
  9.431292e+00    1.888440e+00
  9.454075e+00    1.873335e+00
  9.476858e+00    1.829252e+00
  9.499640e+00    1.805060e+00
  9.522423e+00    1.928165e+00
  9.545206e+00    1.712424e+00
  9.567989e+00    1.625959e+00
  9.590772e+00    1.684746e+00
  9.613554e+00    1.827076e+00
  9.636337e+00    1.846028e+00
  9.659120e+00    1.814578e+00
  9.681903e+00    1.860519e+00
  9.704685e+00    1.825887e+00
  9.727468e+00    1.779560e+00
  9.750251e+00    1.854049e+00
  9.773034e+00    1.738716e+00
  9.795817e+00    1.634239e+00
  9.818599e+00    1.765091e+00
  9.841382e+00    1.700768e+00
  9.864165e+00    1.693228e+00
  9.886948e+00    1.606150e+00
  9.909731e+00    1.709485e+00
  9.932513e+00    1.869257e+00
  9.955296e+00    1.899196e+00
  9.978079e+00    1.759091e+00
  1.000086e+01    1.582229e+00
  1.002364e+01    1.705470e+00
  1.004643e+01    1.918076e+00
  1.006921e+01    1.884258e+00
  1.009199e+01    1.803234e+00
  1.011478e+01    1.839344e+00
  1.013756e+01    1.836965e+00
  1.016034e+01    1.815015e+00
  1.018312e+01    1.804722e+00
  1.020591e+01    1.771376e+00
  1.022869e+01    1.773959e+00
  1.025147e+01    1.777764e+00
  1.027426e+01    1.797357e+00
  1.029704e+01    1.740872e+00
  1.031982e+01    1.721816e+00
  1.034260e+01    1.765711e+00
  1.036539e+01    1.891527e+00
  1.038817e+01    1.887911e+00
  1.041095e+01    1.892916e+00
  1.043373e+01    1.871275e+00
  1.045652e+01    1.893800e+00
  1.047930e+01    1.840281e+00
  1.050208e+01    1.895005e+00
  1.052487e+01    1.944798e+00
  1.054765e+01    1.929731e+00
  1.057043e+01    1.849118e+00
  1.059321e+01    1.824543e+00
  1.061600e+01    1.910146e+00
  1.063878e+01    1.943265e+00
  1.066156e+01    1.963728e+00
  1.068435e+01    1.945478e+00
  1.070713e+01    1.957080e+00
  1.072991e+01    1.899802e+00
  1.075269e+01    1.836334e+00
  1.077548e+01    1.917635e+00
  1.079826e+01    1.912202e+00
  1.082104e+01    1.873257e+00
  1.084383e+01    1.882662e+00
  1.086661e+01    1.904620e+00
  1.088939e+01    1.900598e+00
  1.091217e+01    1.951085e+00
  1.093496e+01    1.768116e+00
  1.095774e+01    1.639117e+00
  1.098052e+01    1.690433e+00
  1.100330e+01    1.749858e+00
  1.102609e+01    1.756637e+00
  1.104887e+01    1.863260e+00
  1.107165e+01    1.941248e+00
  1.109444e+01    1.885419e+00
  1.111722e+01    1.695141e+00
  1.114000e+01    1.691319e+00
  1.116278e+01    1.685774e+00
  1.118557e+01    1.742599e+00
  1.120835e+01    1.805232e+00
  1.123113e+01    1.841560e+00
  1.125392e+01    1.761033e+00
  1.127670e+01    1.769782e+00
  1.129948e+01    1.798224e+00
  1.132226e+01    1.800918e+00
  1.134505e+01    1.754196e+00
  1.136783e+01    1.799923e+00
  1.139061e+01    1.839475e+00
  1.141340e+01    1.829581e+00
  1.143618e+01    1.727963e+00
  1.145896e+01    1.838534e+00
  1.148174e+01    1.878749e+00
  1.150453e+01    1.838868e+00
  1.152731e+01    1.715778e+00
  1.155009e+01    1.846153e+00
  1.157287e+01    1.885126e+00
  1.159566e+01    1.783957e+00
  1.161844e+01    1.887305e+00
  1.164122e+01    1.967644e+00
  1.166401e+01    1.842962e+00
  1.168679e+01    1.881900e+00
  1.170957e+01    1.882196e+00
  1.173235e+01    1.882797e+00
  1.175514e+01    1.855899e+00
  1.177792e+01    1.874271e+00
  1.180070e+01    1.874066e+00
  1.182349e+01    1.785911e+00
  1.184627e+01    1.743041e+00
  1.186905e+01    1.700472e+00
  1.189183e+01    1.774721e+00
  1.191462e+01    1.815014e+00
  1.193740e+01    1.759849e+00
  1.196018e+01    1.835620e+00
  1.198296e+01    1.902541e+00
  1.200575e+01    1.850309e+00
  1.202853e+01    1.752158e+00
  1.205131e+01    1.705875e+00
  1.207410e+01    1.747647e+00
  1.209688e+01    1.749596e+00
  1.211966e+01    1.773670e+00
  1.214244e+01    1.756495e+00
  1.216523e+01    1.693876e+00
  1.218801e+01    1.720629e+00
  1.221079e+01    1.615909e+00
  1.223358e+01    1.685089e+00
  1.225636e+01    1.820796e+00
  1.227914e+01    1.821282e+00
  1.230192e+01    1.788620e+00
  1.232471e+01    1.747292e+00
  1.234749e+01    1.834145e+00
  1.237027e+01    1.843626e+00
  1.239306e+01    1.758336e+00
  1.241584e+01    1.680212e+00
  1.243862e+01    1.714061e+00
  1.246140e+01    1.766983e+00
  1.248419e+01    1.871911e+00
  1.250697e+01    1.814134e+00
  1.252975e+01    1.756351e+00
  1.255253e+01    1.847502e+00
  1.257532e+01    1.832339e+00
  1.259810e+01    1.729502e+00
  1.262088e+01    1.767796e+00
  1.264367e+01    1.761143e+00
  1.266645e+01    1.734865e+00
  1.268923e+01    1.790919e+00
  1.271201e+01    1.718362e+00
  1.273480e+01    1.572801e+00
  1.275758e+01    1.650009e+00
  1.278036e+01    1.645959e+00
  1.280315e+01    1.648893e+00
  1.282593e+01    1.641870e+00
  1.284871e+01    1.675446e+00
  1.287149e+01    1.634219e+00
  1.289428e+01    1.627512e+00
  1.291706e+01    1.677443e+00
  1.293984e+01    1.756760e+00
  1.296263e+01    1.746123e+00
  1.298541e+01    1.644035e+00
  1.300819e+01    1.731721e+00
  1.303097e+01    1.752095e+00
  1.305376e+01    1.719585e+00
  1.307654e+01    1.674719e+00
  1.309932e+01    1.710112e+00
  1.312210e+01    1.699633e+00
  1.314489e+01    1.774568e+00
  1.316767e+01    1.736503e+00
  1.319045e+01    1.722995e+00
  1.321324e+01    1.713533e+00
  1.323602e+01    1.751036e+00
  1.325880e+01    1.790201e+00
  1.328158e+01    1.734535e+00
  1.330437e+01    1.764543e+00
  1.332715e+01    1.844099e+00
  1.334993e+01    1.796406e+00
  1.337272e+01    1.731025e+00
  1.339550e+01    1.615962e+00
  1.341828e+01    1.555391e+00
  1.344106e+01    1.653165e+00
  1.346385e+01    1.674232e+00
  1.348663e+01    1.723384e+00
  1.350941e+01    1.633800e+00
  1.353219e+01    1.633598e+00
  1.355498e+01    1.706966e+00
  1.357776e+01    1.757271e+00
  1.360054e+01    1.714145e+00
  1.362333e+01    1.726010e+00
  1.364611e+01    1.739157e+00
  1.366889e+01    1.769855e+00
  1.369167e+01    1.778885e+00
  1.371446e+01    1.715877e+00
  1.373724e+01    1.758941e+00
  1.376002e+01    1.678977e+00
  1.378281e+01    1.710123e+00
  1.380559e+01    1.620239e+00
  1.382837e+01    1.639094e+00
  1.385115e+01    1.654217e+00
  1.387394e+01    1.577908e+00
  1.389672e+01    1.551056e+00
  1.391950e+01    1.614383e+00
  1.394229e+01    1.632471e+00
  1.396507e+01    1.591536e+00
  1.398785e+01    1.588235e+00
  1.401063e+01    1.728090e+00
  1.403342e+01    1.743904e+00
  1.405620e+01    1.719704e+00
  1.407898e+01    1.659594e+00
  1.410176e+01    1.689747e+00
  1.412455e+01    1.737755e+00
  1.414733e+01    1.783515e+00
  1.417011e+01    1.722899e+00
  1.419290e+01    1.743288e+00
  1.421568e+01    1.731246e+00
  1.423846e+01    1.702621e+00
  1.426124e+01    1.629280e+00
  1.428403e+01    1.661164e+00
  1.430681e+01    1.702951e+00
  1.432959e+01    1.721006e+00
  1.435238e+01    1.702780e+00
  1.437516e+01    1.613124e+00
  1.439794e+01    1.652305e+00
  1.442072e+01    1.698167e+00
  1.444351e+01    1.693767e+00
  1.446629e+01    1.666504e+00
  1.448907e+01    1.706095e+00
  1.451186e+01    1.713642e+00
  1.453464e+01    1.640786e+00
  1.455742e+01    1.691440e+00
  1.458020e+01    1.646275e+00
  1.460299e+01    1.667466e+00
  1.462577e+01    1.658833e+00
  1.464855e+01    1.682555e+00
  1.467133e+01    1.650547e+00
  1.469412e+01    1.739102e+00
  1.471690e+01    1.731964e+00
  1.473968e+01    1.663916e+00
  1.476247e+01    1.621705e+00
  1.478525e+01    1.683648e+00
  1.480803e+01    1.805184e+00
  1.483081e+01    1.724787e+00
  1.485360e+01    1.686758e+00
  1.487638e+01    1.614071e+00
  1.489916e+01    1.642918e+00
  1.492195e+01    1.662905e+00
  1.494473e+01    1.637573e+00
  1.496751e+01    1.686311e+00
  1.499029e+01    1.717237e+00
  1.501308e+01    1.676252e+00
  1.503586e+01    1.713277e+00
  1.505864e+01    1.697680e+00
  1.508142e+01    1.745673e+00
  1.510421e+01    1.756752e+00
  1.512699e+01    1.721333e+00
  1.514977e+01    1.693892e+00
  1.517256e+01    1.702692e+00
  1.519534e+01    1.683435e+00
  1.521812e+01    1.689008e+00
  1.524090e+01    1.682149e+00
  1.526369e+01    1.618430e+00
  1.528647e+01    1.646289e+00
  1.530925e+01    1.722918e+00
  1.533204e+01    1.684048e+00
  1.535482e+01    1.704629e+00
  1.537760e+01    1.738043e+00
  1.540038e+01    1.656736e+00
  1.542317e+01    1.583759e+00
  1.544595e+01    1.661750e+00
  1.546873e+01    1.677988e+00
  1.549152e+01    1.697308e+00
  1.551430e+01    1.630105e+00
  1.553708e+01    1.671692e+00
  1.555986e+01    1.569034e+00
  1.558265e+01    1.542781e+00
  1.560543e+01    1.579813e+00
  1.562821e+01    1.615136e+00
  1.565099e+01    1.544935e+00
  1.567378e+01    1.583524e+00
  1.569656e+01    1.596827e+00
  1.571934e+01    1.584034e+00
  1.574213e+01    1.659612e+00
  1.576491e+01    1.635882e+00
  1.578769e+01    1.625262e+00
  1.581047e+01    1.700785e+00
  1.583326e+01    1.768407e+00
  1.585604e+01    1.697921e+00
  1.587882e+01    1.736144e+00
  1.590161e+01    1.710401e+00
  1.592439e+01    1.670220e+00
  1.594717e+01    1.679607e+00
  1.596995e+01    1.661540e+00
  1.599274e+01    1.696894e+00
  1.601552e+01    1.685283e+00
  1.603830e+01    1.628628e+00
  1.606109e+01    1.684038e+00
  1.608387e+01    1.735863e+00
  1.610665e+01    1.681623e+00
  1.612943e+01    1.629140e+00
  1.615222e+01    1.586191e+00
  1.617500e+01    1.581035e+00
  1.619778e+01    1.575067e+00
  1.622056e+01    1.529620e+00
  1.624335e+01    1.608109e+00
  1.626613e+01    1.639855e+00
  1.628891e+01    1.694169e+00
  1.631170e+01    1.626107e+00
  1.633448e+01    1.627122e+00
  1.635726e+01    1.608795e+00
  1.638004e+01    1.514132e+00
  1.640283e+01    1.625647e+00
  1.642561e+01    1.725657e+00
  1.644839e+01    1.650967e+00
  1.647118e+01    1.614363e+00
  1.649396e+01    1.652617e+00
  1.651674e+01    1.677331e+00
  1.653952e+01    1.546693e+00
  1.656231e+01    1.556117e+00
  1.658509e+01    1.629651e+00
  1.660787e+01    1.573051e+00
  1.663065e+01    1.595236e+00
  1.665344e+01    1.605820e+00
  1.667622e+01    1.512418e+00
  1.669900e+01    1.502617e+00
  1.672179e+01    1.565014e+00
  1.674457e+01    1.590620e+00
  1.676735e+01    1.577968e+00
  1.679013e+01    1.661839e+00
  1.681292e+01    1.654332e+00
  1.683570e+01    1.673669e+00
  1.685848e+01    1.680141e+00
  1.688127e+01    1.693824e+00
  1.690405e+01    1.729120e+00
  1.692683e+01    1.627809e+00
  1.694961e+01    1.564414e+00
  1.697240e+01    1.579860e+00
  1.699518e+01    1.593883e+00
  1.701796e+01    1.590874e+00
  1.704075e+01    1.614448e+00
  1.706353e+01    1.642835e+00
  1.708631e+01    1.636419e+00
  1.710909e+01    1.626291e+00
  1.713188e+01    1.516267e+00
  1.715466e+01    1.619288e+00
  1.717744e+01    1.623394e+00
  1.720022e+01    1.554657e+00
  1.722301e+01    1.577040e+00
  1.724579e+01    1.659442e+00
  1.726857e+01    1.597455e+00
  1.729136e+01    1.542179e+00
  1.731414e+01    1.524570e+00
  1.733692e+01    1.544517e+00
  1.735970e+01    1.585485e+00
  1.738249e+01    1.576317e+00
  1.740527e+01    1.640778e+00
  1.742805e+01    1.595205e+00
  1.745084e+01    1.605128e+00
  1.747362e+01    1.537115e+00
  1.749640e+01    1.634091e+00
  1.751918e+01    1.638950e+00
  1.754197e+01    1.514005e+00
  1.756475e+01    1.552364e+00
  1.758753e+01    1.601423e+00
  1.761032e+01    1.660903e+00
  1.763310e+01    1.544068e+00
  1.765588e+01    1.567997e+00
  1.767866e+01    1.585676e+00
  1.770145e+01    1.612154e+00
  1.772423e+01    1.596307e+00
  1.774701e+01    1.662239e+00
  1.776979e+01    1.588312e+00
  1.779258e+01    1.623585e+00
  1.781536e+01    1.588672e+00
  1.783814e+01    1.537005e+00
  1.786093e+01    1.524991e+00
  1.788371e+01    1.568148e+00
  1.790649e+01    1.485893e+00
  1.792927e+01    1.525794e+00
  1.795206e+01    1.617692e+00
  1.797484e+01    1.601537e+00
  1.799762e+01    1.550703e+00
  1.802041e+01    1.464392e+00
  1.804319e+01    1.573857e+00
  1.806597e+01    1.575549e+00
  1.808875e+01    1.574362e+00
  1.811154e+01    1.557917e+00
  1.813432e+01    1.540815e+00
  1.815710e+01    1.634974e+00
  1.817989e+01    1.549624e+00
  1.820267e+01    1.595291e+00
  1.822545e+01    1.599995e+00
  1.824823e+01    1.513660e+00
  1.827102e+01    1.534551e+00
  1.829380e+01    1.510554e+00
  1.831658e+01    1.565649e+00
  1.833936e+01    1.530455e+00
  1.836215e+01    1.546473e+00
  1.838493e+01    1.569758e+00
  1.840771e+01    1.586263e+00
  1.843050e+01    1.573657e+00
  1.845328e+01    1.569826e+00
  1.847606e+01    1.585614e+00
  1.849884e+01    1.629461e+00
  1.852163e+01    1.585279e+00
  1.854441e+01    1.554378e+00
  1.856719e+01    1.553002e+00
  1.858998e+01    1.492083e+00
  1.861276e+01    1.571445e+00
  1.863554e+01    1.565343e+00
  1.865832e+01    1.613861e+00
  1.868111e+01    1.623659e+00
  1.870389e+01    1.614268e+00
  1.872667e+01    1.571933e+00
  1.874945e+01    1.531731e+00
  1.877224e+01    1.624269e+00
  1.879502e+01    1.569138e+00
  1.881780e+01    1.541034e+00
  1.884059e+01    1.534561e+00
  1.886337e+01    1.566632e+00
  1.888615e+01    1.578972e+00
  1.890893e+01    1.550088e+00
  1.893172e+01    1.589898e+00
  1.895450e+01    1.576219e+00
  1.897728e+01    1.532448e+00
  1.900007e+01    1.524172e+00
  1.902285e+01    1.553193e+00
  1.904563e+01    1.508703e+00
  1.906841e+01    1.505883e+00
  1.909120e+01    1.565097e+00
  1.911398e+01    1.575899e+00
  1.913676e+01    1.536081e+00
  1.915955e+01    1.543936e+00
  1.918233e+01    1.518496e+00
  1.920511e+01    1.493826e+00
  1.922789e+01    1.529679e+00
  1.925068e+01    1.579204e+00
  1.927346e+01    1.558056e+00
  1.929624e+01    1.557068e+00
  1.931902e+01    1.528582e+00
  1.934181e+01    1.523195e+00
  1.936459e+01    1.604651e+00
  1.938737e+01    1.583371e+00
  1.941016e+01    1.553241e+00
  1.943294e+01    1.503896e+00
  1.945572e+01    1.523054e+00
  1.947850e+01    1.506123e+00
  1.950129e+01    1.529645e+00
  1.952407e+01    1.492573e+00
  1.954685e+01    1.512330e+00
  1.956964e+01    1.536245e+00
  1.959242e+01    1.520235e+00
  1.961520e+01    1.507920e+00
  1.963798e+01    1.552617e+00
  1.966077e+01    1.482860e+00
  1.968355e+01    1.521808e+00
  1.970633e+01    1.522138e+00
  1.972912e+01    1.518063e+00
  1.975190e+01    1.506469e+00
  1.977468e+01    1.480710e+00
  1.979746e+01    1.498343e+00
  1.982025e+01    1.475277e+00
  1.984303e+01    1.431269e+00
  1.986581e+01    1.461774e+00
  1.988859e+01    1.494236e+00
  1.991138e+01    1.493296e+00
  1.993416e+01    1.514340e+00
  1.995694e+01    1.543169e+00
  1.997973e+01    1.528671e+00
  2.000251e+01    1.468640e+00
  2.002529e+01    1.495288e+00
  2.004807e+01    1.569224e+00
  2.007086e+01    1.565113e+00
  2.009364e+01    1.460950e+00
  2.011642e+01    1.458980e+00
  2.013921e+01    1.467504e+00
  2.016199e+01    1.452313e+00
  2.018477e+01    1.432717e+00
  2.020755e+01    1.463946e+00
  2.023034e+01    1.441847e+00
  2.025312e+01    1.465225e+00
  2.027590e+01    1.511868e+00
  2.029868e+01    1.542448e+00
  2.032147e+01    1.536853e+00
  2.034425e+01    1.505359e+00
  2.036703e+01    1.516714e+00
  2.038982e+01    1.532137e+00
  2.041260e+01    1.535457e+00
  2.043538e+01    1.539448e+00
  2.045816e+01    1.476995e+00
  2.048095e+01    1.459499e+00
  2.050373e+01    1.476081e+00
  2.052651e+01    1.459595e+00
  2.054930e+01    1.489707e+00
  2.057208e+01    1.510387e+00
  2.059486e+01    1.549960e+00
  2.061764e+01    1.490414e+00
  2.064043e+01    1.438833e+00
  2.066321e+01    1.451792e+00
  2.068599e+01    1.556908e+00
  2.070878e+01    1.472105e+00
  2.073156e+01    1.435429e+00
  2.075434e+01    1.456965e+00
  2.077712e+01    1.514898e+00
  2.079991e+01    1.473209e+00
  2.082269e+01    1.468963e+00
  2.084547e+01    1.498836e+00
  2.086825e+01    1.522320e+00
  2.089104e+01    1.569701e+00
  2.091382e+01    1.490832e+00
  2.093660e+01    1.498972e+00
  2.095939e+01    1.510359e+00
  2.098217e+01    1.515157e+00
  2.100495e+01    1.463785e+00
  2.102773e+01    1.452050e+00
  2.105052e+01    1.423540e+00
  2.107330e+01    1.488360e+00
  2.109608e+01    1.421292e+00
  2.111887e+01    1.448021e+00
  2.114165e+01    1.498083e+00
  2.116443e+01    1.430003e+00
  2.118721e+01    1.397174e+00
  2.121000e+01    1.441935e+00
  2.123278e+01    1.423853e+00
  2.125556e+01    1.449081e+00
  2.127835e+01    1.471069e+00
  2.130113e+01    1.489340e+00
  2.132391e+01    1.460075e+00
  2.134669e+01    1.503899e+00
  2.136948e+01    1.535197e+00
  2.139226e+01    1.463719e+00
  2.141504e+01    1.441620e+00
  2.143782e+01    1.485796e+00
  2.146061e+01    1.540158e+00
  2.148339e+01    1.504332e+00
  2.150617e+01    1.454059e+00
  2.152896e+01    1.433544e+00
  2.155174e+01    1.451399e+00
  2.157452e+01    1.441415e+00
  2.159730e+01    1.429935e+00
  2.162009e+01    1.521337e+00
  2.164287e+01    1.446146e+00
  2.166565e+01    1.423687e+00
  2.168844e+01    1.443624e+00
  2.171122e+01    1.381380e+00
  2.173400e+01    1.410787e+00
  2.175678e+01    1.422264e+00
  2.177957e+01    1.451207e+00
  2.180235e+01    1.428371e+00
  2.182513e+01    1.412256e+00
  2.184791e+01    1.449676e+00
  2.187070e+01    1.409214e+00
  2.189348e+01    1.414029e+00
  2.191626e+01    1.435657e+00
  2.193905e+01    1.485348e+00
  2.196183e+01    1.468799e+00
  2.198461e+01    1.462232e+00
  2.200739e+01    1.416756e+00
  2.203018e+01    1.410682e+00
  2.205296e+01    1.447873e+00
  2.207574e+01    1.422091e+00
  2.209853e+01    1.453725e+00
  2.212131e+01    1.488000e+00
  2.214409e+01    1.472096e+00
  2.216687e+01    1.429984e+00
  2.218966e+01    1.415527e+00
  2.221244e+01    1.464124e+00
  2.223522e+01    1.397328e+00
  2.225801e+01    1.418417e+00
  2.228079e+01    1.417154e+00
  2.230357e+01    1.439269e+00
  2.232635e+01    1.394129e+00
  2.234914e+01    1.417257e+00
  2.237192e+01    1.418858e+00
  2.239470e+01    1.389423e+00
  2.241748e+01    1.415109e+00
  2.244027e+01    1.425815e+00
  2.246305e+01    1.399270e+00
  2.248583e+01    1.427469e+00
  2.250862e+01    1.489083e+00
  2.253140e+01    1.389207e+00
  2.255418e+01    1.337410e+00
  2.257696e+01    1.386285e+00
  2.259975e+01    1.437877e+00
  2.262253e+01    1.417511e+00
  2.264531e+01    1.430364e+00
  2.266810e+01    1.414351e+00
  2.269088e+01    1.411470e+00
  2.271366e+01    1.360216e+00
  2.273644e+01    1.397645e+00
  2.275923e+01    1.446238e+00
  2.278201e+01    1.351769e+00
  2.280479e+01    1.392682e+00
  2.282758e+01    1.419800e+00
  2.285036e+01    1.414489e+00
  2.287314e+01    1.361197e+00
  2.289592e+01    1.399443e+00
  2.291871e+01    1.381606e+00
  2.294149e+01    1.402129e+00
  2.296427e+01    1.390923e+00
  2.298705e+01    1.436471e+00
  2.300984e+01    1.436702e+00
  2.303262e+01    1.414611e+00
  2.305540e+01    1.401055e+00
  2.307819e+01    1.425548e+00
  2.310097e+01    1.380660e+00
  2.312375e+01    1.401534e+00
  2.314653e+01    1.415604e+00
  2.316932e+01    1.402568e+00
  2.319210e+01    1.476867e+00
  2.321488e+01    1.405742e+00
  2.323767e+01    1.390941e+00
  2.326045e+01    1.434123e+00
  2.328323e+01    1.468558e+00
  2.330601e+01    1.407506e+00
  2.332880e+01    1.369457e+00
  2.335158e+01    1.344766e+00
  2.337436e+01    1.366369e+00
  2.339714e+01    1.405305e+00
  2.341993e+01    1.416114e+00
  2.344271e+01    1.349378e+00
  2.346549e+01    1.413458e+00
  2.348828e+01    1.458560e+00
  2.351106e+01    1.379015e+00
  2.353384e+01    1.465431e+00
  2.355662e+01    1.424986e+00
  2.357941e+01    1.388736e+00
  2.360219e+01    1.375454e+00
  2.362497e+01    1.407665e+00
  2.364776e+01    1.419159e+00
  2.367054e+01    1.424610e+00
  2.369332e+01    1.407114e+00
  2.371610e+01    1.393527e+00
  2.373889e+01    1.386026e+00
  2.376167e+01    1.389039e+00
  2.378445e+01    1.377291e+00
  2.380724e+01    1.377923e+00
  2.383002e+01    1.375737e+00
  2.385280e+01    1.386551e+00
  2.387558e+01    1.354481e+00
  2.389837e+01    1.363380e+00
  2.392115e+01    1.391096e+00
  2.394393e+01    1.349964e+00
  2.396671e+01    1.351872e+00
  2.398950e+01    1.382037e+00
  2.401228e+01    1.394276e+00
  2.403506e+01    1.367508e+00
  2.405785e+01    1.402431e+00
  2.408063e+01    1.409833e+00
  2.410341e+01    1.336601e+00
  2.412619e+01    1.417248e+00
  2.414898e+01    1.466711e+00
  2.417176e+01    1.420267e+00
  2.419454e+01    1.400751e+00
  2.421733e+01    1.374302e+00
  2.424011e+01    1.362884e+00
  2.426289e+01    1.365948e+00
  2.428567e+01    1.340572e+00
  2.430846e+01    1.356762e+00
  2.433124e+01    1.423834e+00
  2.435402e+01    1.413650e+00
  2.437681e+01    1.400320e+00
  2.439959e+01    1.401149e+00
  2.442237e+01    1.392617e+00
  2.444515e+01    1.387741e+00
  2.446794e+01    1.340724e+00
  2.449072e+01    1.323874e+00
  2.451350e+01    1.334954e+00
  2.453628e+01    1.329977e+00
  2.455907e+01    1.346891e+00
  2.458185e+01    1.377803e+00
  2.460463e+01    1.378794e+00
  2.462742e+01    1.315917e+00
  2.465020e+01    1.362241e+00
  2.467298e+01    1.408676e+00
  2.469576e+01    1.341428e+00
  2.471855e+01    1.342330e+00
  2.474133e+01    1.342722e+00
  2.476411e+01    1.385342e+00
  2.478690e+01    1.367454e+00
  2.480968e+01    1.358558e+00
  2.483246e+01    1.382859e+00
  2.485524e+01    1.362239e+00
  2.487803e+01    1.359965e+00
  2.490081e+01    1.374066e+00
  2.492359e+01    1.437464e+00
  2.494637e+01    1.411954e+00
  2.496916e+01    1.383396e+00
  2.499194e+01    1.381498e+00
  2.501472e+01    1.372523e+00
  2.503751e+01    1.380160e+00
  2.506029e+01    1.383008e+00
  2.508307e+01    1.338858e+00
  2.510585e+01    1.323472e+00
  2.512864e+01    1.348976e+00
  2.515142e+01    1.327715e+00
  2.517420e+01    1.372768e+00
  2.519699e+01    1.362857e+00
  2.521977e+01    1.372370e+00
  2.524255e+01    1.350160e+00
  2.526533e+01    1.355247e+00
  2.528812e+01    1.341044e+00
  2.531090e+01    1.381670e+00
  2.533368e+01    1.388787e+00
  2.535647e+01    1.338011e+00
  2.537925e+01    1.370788e+00
  2.540203e+01    1.396759e+00
  2.542481e+01    1.351275e+00
  2.544760e+01    1.335717e+00
  2.547038e+01    1.375813e+00
  2.549316e+01    1.326162e+00
  2.551594e+01    1.324251e+00
  2.553873e+01    1.301310e+00
  2.556151e+01    1.311427e+00
  2.558429e+01    1.326112e+00
  2.560708e+01    1.351398e+00
  2.562986e+01    1.349385e+00
  2.565264e+01    1.349631e+00
  2.567542e+01    1.361721e+00
  2.569821e+01    1.358002e+00
  2.572099e+01    1.359192e+00
  2.574377e+01    1.325502e+00
  2.576656e+01    1.342540e+00
  2.578934e+01    1.352919e+00
  2.581212e+01    1.352692e+00
  2.583490e+01    1.307877e+00
  2.585769e+01    1.329200e+00
  2.588047e+01    1.357118e+00
  2.590325e+01    1.360056e+00
  2.592604e+01    1.364672e+00
  2.594882e+01    1.321514e+00
  2.597160e+01    1.310279e+00
  2.599438e+01    1.318878e+00
  2.601717e+01    1.312979e+00
  2.603995e+01    1.365385e+00
  2.606273e+01    1.353576e+00
  2.608551e+01    1.358796e+00
  2.610830e+01    1.366749e+00
  2.613108e+01    1.343990e+00
  2.615386e+01    1.360745e+00
  2.617665e+01    1.400560e+00
  2.619943e+01    1.331653e+00
  2.622221e+01    1.322104e+00
  2.624499e+01    1.295755e+00
  2.626778e+01    1.337639e+00
  2.629056e+01    1.317713e+00
  2.631334e+01    1.308236e+00
  2.633613e+01    1.360221e+00
  2.635891e+01    1.346138e+00
  2.638169e+01    1.378624e+00
  2.640447e+01    1.356669e+00
  2.642726e+01    1.331296e+00
  2.645004e+01    1.291833e+00
  2.647282e+01    1.321284e+00
  2.649560e+01    1.319503e+00
  2.651839e+01    1.332811e+00
  2.654117e+01    1.382423e+00
  2.656395e+01    1.306684e+00
  2.658674e+01    1.293422e+00
  2.660952e+01    1.339146e+00
  2.663230e+01    1.311250e+00
  2.665508e+01    1.309102e+00
  2.667787e+01    1.299856e+00
  2.670065e+01    1.324079e+00
  2.672343e+01    1.313268e+00
  2.674622e+01    1.371677e+00
  2.676900e+01    1.382397e+00
  2.679178e+01    1.318300e+00
  2.681456e+01    1.307795e+00
  2.683735e+01    1.336438e+00
  2.686013e+01    1.335531e+00
  2.688291e+01    1.306623e+00
  2.690570e+01    1.339096e+00
  2.692848e+01    1.314629e+00
  2.695126e+01    1.344941e+00
  2.697404e+01    1.331213e+00
  2.699683e+01    1.358503e+00
  2.701961e+01    1.307113e+00
  2.704239e+01    1.308603e+00
  2.706517e+01    1.328792e+00
  2.708796e+01    1.341291e+00
  2.711074e+01    1.377836e+00
  2.713352e+01    1.356446e+00
  2.715631e+01    1.365065e+00
  2.717909e+01    1.357254e+00
  2.720187e+01    1.361908e+00
  2.722465e+01    1.349783e+00
  2.724744e+01    1.323041e+00
  2.727022e+01    1.373931e+00
  2.729300e+01    1.317019e+00
  2.731579e+01    1.351143e+00
  2.733857e+01    1.357107e+00
  2.736135e+01    1.397328e+00
  2.738413e+01    1.374655e+00
  2.740692e+01    1.360896e+00
  2.742970e+01    1.413628e+00
  2.745248e+01    1.404622e+00
  2.747527e+01    1.383956e+00
  2.749805e+01    1.435897e+00
  2.752083e+01    1.413234e+00
  2.754361e+01    1.442058e+00
  2.756640e+01    1.508284e+00
  2.758918e+01    1.462154e+00
  2.761196e+01    1.452138e+00
  2.763474e+01    1.469462e+00
  2.765753e+01    1.500258e+00
  2.768031e+01    1.487414e+00
  2.770309e+01    1.492148e+00
  2.772588e+01    1.535390e+00
  2.774866e+01    1.565390e+00
  2.777144e+01    1.527669e+00
  2.779422e+01    1.508764e+00
  2.781701e+01    1.516184e+00
  2.783979e+01    1.527753e+00
  2.786257e+01    1.612252e+00
  2.788536e+01    1.583215e+00
  2.790814e+01    1.621166e+00
  2.793092e+01    1.584805e+00
  2.795370e+01    1.627482e+00
  2.797649e+01    1.601114e+00
  2.799927e+01    1.666778e+00
  2.802205e+01    1.637130e+00
  2.804483e+01    1.602597e+00
  2.806762e+01    1.693680e+00
  2.809040e+01    1.646105e+00
  2.811318e+01    1.634431e+00
  2.813597e+01    1.690888e+00
  2.815875e+01    1.690689e+00
  2.818153e+01    1.679655e+00
  2.820431e+01    1.654547e+00
  2.822710e+01    1.738530e+00
  2.824988e+01    1.692611e+00
  2.827266e+01    1.602696e+00
  2.829545e+01    1.701138e+00
  2.831823e+01    1.729255e+00
  2.834101e+01    1.729888e+00
  2.836379e+01    1.701550e+00
  2.838658e+01    1.641627e+00
  2.840936e+01    1.643111e+00
  2.843214e+01    1.751061e+00
  2.845493e+01    1.665076e+00
  2.847771e+01    1.588448e+00
  2.850049e+01    1.672670e+00
  2.852327e+01    1.624776e+00
  2.854606e+01    1.643912e+00
  2.856884e+01    1.640886e+00
  2.859162e+01    1.664218e+00
  2.861440e+01    1.606882e+00
  2.863719e+01    1.587851e+00
  2.865997e+01    1.667388e+00
  2.868275e+01    1.767164e+00
  2.870554e+01    1.611281e+00
  2.872832e+01    1.660624e+00
  2.875110e+01    1.644685e+00
  2.877388e+01    1.659191e+00
  2.879667e+01    1.557413e+00
  2.881945e+01    1.620881e+00
  2.884223e+01    1.675639e+00
  2.886502e+01    1.640214e+00
  2.888780e+01    1.637795e+00
  2.891058e+01    1.606777e+00
  2.893336e+01    1.579032e+00
  2.895615e+01    1.588902e+00
  2.897893e+01    1.593926e+00
  2.900171e+01    1.619399e+00
  2.902450e+01    1.586771e+00
  2.904728e+01    1.574055e+00
  2.907006e+01    1.617845e+00
  2.909284e+01    1.648645e+00
  2.911563e+01    1.648063e+00
  2.913841e+01    1.607890e+00
  2.916119e+01    1.597915e+00
  2.918397e+01    1.616201e+00
  2.920676e+01    1.574138e+00
  2.922954e+01    1.626224e+00
  2.925232e+01    1.663759e+00
  2.927511e+01    1.623231e+00
  2.929789e+01    1.542926e+00
  2.932067e+01    1.573675e+00
  2.934345e+01    1.602511e+00
  2.936624e+01    1.574167e+00
  2.938902e+01    1.580304e+00
  2.941180e+01    1.564502e+00
  2.943459e+01    1.561447e+00
  2.945737e+01    1.533523e+00
  2.948015e+01    1.505640e+00
  2.950293e+01    1.536259e+00
  2.952572e+01    1.501887e+00
  2.954850e+01    1.522980e+00
  2.957128e+01    1.523016e+00
  2.959407e+01    1.514722e+00
  2.961685e+01    1.467381e+00
  2.963963e+01    1.514893e+00
  2.966241e+01    1.521516e+00
  2.968520e+01    1.449692e+00
  2.970798e+01    1.559199e+00
  2.973076e+01    1.405039e+00
  2.975354e+01    1.447495e+00
  2.977633e+01    1.425652e+00
  2.979911e+01    1.454073e+00
  2.982189e+01    1.373866e+00
  2.984468e+01    1.400156e+00
  2.986746e+01    1.386950e+00
  2.989024e+01    1.403258e+00
  2.991302e+01    1.404380e+00
  2.993581e+01    1.451964e+00
  2.995859e+01    1.433415e+00
  2.998137e+01    1.441338e+00
  3.000416e+01    1.440731e+00
  3.002694e+01    1.389222e+00
  3.004972e+01    1.389768e+00
  3.007250e+01    1.425280e+00
  3.009529e+01    1.401395e+00
  3.011807e+01    1.398903e+00
  3.014085e+01    1.411689e+00
  3.016363e+01    1.342696e+00
  3.018642e+01    1.330731e+00
  3.020920e+01    1.354175e+00
  3.023198e+01    1.308141e+00
  3.025477e+01    1.287948e+00
  3.027755e+01    1.295051e+00
  3.030033e+01    1.244556e+00
  3.032311e+01    1.273772e+00
  3.034590e+01    1.332833e+00
  3.036868e+01    1.260224e+00
  3.039146e+01    1.277141e+00
  3.041425e+01    1.305538e+00
  3.043703e+01    1.341908e+00
  3.045981e+01    1.315663e+00
  3.048259e+01    1.252664e+00
  3.050538e+01    1.294135e+00
  3.052816e+01    1.302912e+00
  3.055094e+01    1.240361e+00
  3.057373e+01    1.248305e+00
  3.059651e+01    1.240181e+00
  3.061929e+01    1.236240e+00
  3.064207e+01    1.278725e+00
  3.066486e+01    1.259415e+00
  3.068764e+01    1.232884e+00
  3.071042e+01    1.175400e+00
  3.073320e+01    1.227834e+00
  3.075599e+01    1.215315e+00
  3.077877e+01    1.225285e+00
  3.080155e+01    1.230137e+00
  3.082434e+01    1.200694e+00
  3.084712e+01    1.200631e+00
  3.086990e+01    1.299621e+00
  3.089268e+01    1.188722e+00
  3.091547e+01    1.174295e+00
  3.093825e+01    1.152276e+00
  3.096103e+01    1.227511e+00
  3.098382e+01    1.300709e+00
  3.100660e+01    1.271759e+00
  3.102938e+01    1.206366e+00
  3.105216e+01    1.203198e+00
  3.107495e+01    1.217669e+00
  3.109773e+01    1.212425e+00
  3.112051e+01    1.195435e+00
  3.114330e+01    1.187084e+00
  3.116608e+01    1.197951e+00
  3.118886e+01    1.180720e+00
  3.121164e+01    1.209683e+00
  3.123443e+01    1.183668e+00
  3.125721e+01    1.177613e+00
  3.127999e+01    1.134259e+00
  3.130277e+01    1.255561e+00
  3.132556e+01    1.236462e+00
  3.134834e+01    1.177733e+00
  3.137112e+01    1.159548e+00
  3.139391e+01    1.191693e+00
  3.141669e+01    1.228746e+00
  3.143947e+01    1.242551e+00
  3.146225e+01    1.215292e+00
  3.148504e+01    1.216246e+00
  3.150782e+01    1.242353e+00
  3.153060e+01    1.154703e+00
  3.155339e+01    1.174930e+00
  3.157617e+01    1.151915e+00
  3.159895e+01    1.225329e+00
  3.162173e+01    1.143139e+00
  3.164452e+01    1.133546e+00
  3.166730e+01    1.268219e+00
  3.169008e+01    1.230560e+00
  3.171286e+01    1.139699e+00
  3.173565e+01    1.134046e+00
  3.175843e+01    1.216748e+00
  3.178121e+01    1.110587e+00
  3.180400e+01    1.268828e+00
  3.182678e+01    1.071135e+00
  3.184956e+01    1.118820e+00
  3.187234e+01    1.249543e+00
  3.189513e+01    1.204791e+00
  3.191791e+01    1.236725e+00
  3.194069e+01    1.202372e+00
  3.196348e+01    1.303508e+00
  3.198626e+01    1.140287e+00
  3.200904e+01    1.147366e+00
  3.203182e+01    1.210375e+00
  3.205461e+01    1.174274e+00
  3.207739e+01    1.221790e+00
  3.210017e+01    1.125504e+00
  3.212296e+01    1.264573e+00
  3.214574e+01    1.150725e+00
  3.216852e+01    1.191805e+00
  3.219130e+01    1.137191e+00
  3.221409e+01    1.185793e+00
  3.223687e+01    1.208343e+00
  3.225965e+01    1.190937e+00
  3.228243e+01    1.193298e+00
  3.230522e+01    1.236520e+00
  3.232800e+01    1.179494e+00
  3.235078e+01    1.166901e+00
  3.237357e+01    1.131367e+00
  3.239635e+01    1.142375e+00
  3.241913e+01    1.077578e+00
  3.244191e+01    1.287718e+00
  3.246470e+01    1.229933e+00
  3.248748e+01    1.140418e+00
  3.251026e+01    1.091407e+00
  3.253305e+01    1.031803e+00
  3.255583e+01    1.075535e+00
  3.257861e+01    1.170389e+00
  3.260139e+01    1.116116e+00
  3.262418e+01    1.197266e+00
  3.264696e+01    1.134796e+00
  3.266974e+01    1.132724e+00
  3.269253e+01    1.017209e+00
  3.271531e+01    1.064357e+00
  3.273809e+01    1.155837e+00
  3.276087e+01    1.146800e+00
  3.278366e+01    1.197419e+00
  3.280644e+01    1.050908e+00
  3.282922e+01    1.216899e+00
  3.285200e+01    1.133719e+00
  3.287479e+01    1.113383e+00
  3.289757e+01    1.211765e+00
  3.292035e+01    1.132964e+00
  3.294314e+01    1.049616e+00
  3.296592e+01    1.153732e+00
  3.298870e+01    1.101275e+00
  3.301148e+01    1.247014e+00
  3.303427e+01    1.173355e+00
  3.305705e+01    1.113211e+00
  3.307983e+01    1.138363e+00
  3.310262e+01    1.165866e+00
  3.312540e+01    1.133220e+00
  3.314818e+01    9.949437e-01
  3.317096e+01    1.116697e+00
  3.319375e+01    1.127696e+00
  3.321653e+01    1.247521e+00
  3.323931e+01    1.195786e+00
  3.326209e+01    1.116020e+00
  3.328488e+01    9.409349e-01
  3.330766e+01    9.424568e-01
  3.333044e+01    1.115047e+00
  3.335323e+01    1.406017e+00
  3.337601e+01    1.352494e+00
  3.339879e+01    1.601326e+00
  3.342157e+01    1.315689e+00
  3.344436e+01    1.553518e+00
  3.346714e+01    1.086118e+00
  3.348992e+01    2.377515e-01
  3.351271e+01    0.000000e+00
  3.353549e+01    0.000000e+00
  3.355827e+01    0.000000e+00
  3.358105e+01    0.000000e+00
  3.360384e+01    0.000000e+00
  3.362662e+01    0.000000e+00
  3.364940e+01    0.000000e+00
  3.367219e+01    0.000000e+00
  3.369497e+01    0.000000e+00
  3.371775e+01    0.000000e+00
