# == pyFAI calibration ==
# Distance Sample to Detector: 0.21311058206280517 m
# PONI: 2.037e-01, 1.993e-01 m
# Rotations: -0.005459 0.000134 0.000000 rad
# 
# == Fit2d calibration ==
# Distance Sample-beamCenter: 213.114 mm
# Center: x=1002.134, y=1018.730 pix
# Tilt: 0.313 deg  TiltPlanRot: 1.411 deg
# 
# Detector Perkin detector	 PixelSize= 2.000e-04, 2.000e-04 m
#    Detector has a mask: False 
#    Detector has a dark current: False 
#    detector has a flat field: False 
# 
# Wavelength: 1.675e-11 m
# Mask applied: provided
# Dark current applied: False
# Flat field applied: False
# Polarization factor: None
# Normalization factor: 1.0
# --> data/chi_bkgsub_true/C_Tatania1-46.8-average.chi
#        q_A^-1             I 
  2.199784e-02    1.488581e+00
  4.478064e-02    1.762336e+00
  6.756343e-02    2.848027e+00
  9.034623e-02    1.761701e+00
  1.131290e-01    1.720716e+00
  1.359118e-01    1.245552e+00
  1.586946e-01    1.555104e+00
  1.814774e-01    1.696240e+00
  2.042602e-01    2.050174e+00
  2.270430e-01    3.784133e+00
  2.498258e-01    7.552229e+00
  2.726086e-01    1.894957e+01
  2.953914e-01    6.037366e+01
  3.181742e-01    1.181182e+02
  3.409570e-01    1.171879e+02
  3.637398e-01    7.505704e+01
  3.865226e-01    3.650104e+01
  4.093054e-01    4.045537e+01
  4.320881e-01    3.585912e+01
  4.548709e-01    2.119565e+01
  4.776537e-01    1.268186e+01
  5.004365e-01    1.002933e+01
  5.232193e-01    9.941319e+00
  5.460021e-01    1.169149e+01
  5.687849e-01    1.523189e+01
  5.915677e-01    1.681232e+01
  6.143505e-01    1.602749e+01
  6.371333e-01    1.497808e+01
  6.599161e-01    1.421715e+01
  6.826989e-01    1.318435e+01
  7.054817e-01    1.220093e+01
  7.282645e-01    1.162738e+01
  7.510473e-01    1.145939e+01
  7.738301e-01    1.106034e+01
  7.966129e-01    1.029745e+01
  8.193956e-01    1.069107e+01
  8.421784e-01    1.043983e+01
  8.649612e-01    9.861638e+00
  8.877440e-01    9.699250e+00
  9.105268e-01    9.727607e+00
  9.333096e-01    9.621025e+00
  9.560924e-01    9.052618e+00
  9.788752e-01    8.925792e+00
  1.001658e+00    9.097115e+00
  1.024441e+00    9.176887e+00
  1.047224e+00    9.319481e+00
  1.070006e+00    8.902220e+00
  1.092789e+00    8.838996e+00
  1.115572e+00    8.209982e+00
  1.138355e+00    8.288867e+00
  1.161138e+00    8.470321e+00
  1.183920e+00    8.899535e+00
  1.206703e+00    9.137322e+00
  1.229486e+00    9.895359e+00
  1.252269e+00    1.063492e+01
  1.275052e+00    9.986402e+00
  1.297834e+00    9.804071e+00
  1.320617e+00    9.659863e+00
  1.343400e+00    1.000832e+01
  1.366183e+00    1.033820e+01
  1.388966e+00    1.052659e+01
  1.411748e+00    1.083604e+01
  1.434531e+00    1.041654e+01
  1.457314e+00    9.418699e+00
  1.480097e+00    9.226042e+00
  1.502879e+00    9.354298e+00
  1.525662e+00    1.021807e+01
  1.548445e+00    9.919468e+00
  1.571228e+00    9.685256e+00
  1.594011e+00    9.239856e+00
  1.616793e+00    9.542504e+00
  1.639576e+00    1.038946e+01
  1.662359e+00    1.126424e+01
  1.685142e+00    1.309651e+01
  1.707925e+00    1.705494e+01
  1.730707e+00    2.218095e+01
  1.753490e+00    2.890287e+01
  1.776273e+00    3.263706e+01
  1.799056e+00    3.119933e+01
  1.821839e+00    2.493314e+01
  1.844621e+00    1.736775e+01
  1.867404e+00    1.174888e+01
  1.890187e+00    8.112769e+00
  1.912970e+00    6.387669e+00
  1.935753e+00    5.281214e+00
  1.958535e+00    4.762355e+00
  1.981318e+00    4.558801e+00
  2.004101e+00    4.183485e+00
  2.026884e+00    3.900173e+00
  2.049667e+00    3.678455e+00
  2.072449e+00    4.138757e+00
  2.095232e+00    4.137255e+00
  2.118015e+00    4.095955e+00
  2.140798e+00    4.553560e+00
  2.163581e+00    4.765420e+00
  2.186363e+00    3.359978e+00
  2.209146e+00    2.914889e+00
  2.231929e+00    3.050616e+00
  2.254712e+00    3.033232e+00
  2.277494e+00    3.292247e+00
  2.300277e+00    3.432539e+00
  2.323060e+00    3.539541e+00
  2.345843e+00    3.299978e+00
  2.368626e+00    2.652800e+00
  2.391408e+00    2.898206e+00
  2.414191e+00    3.090940e+00
  2.436974e+00    3.287058e+00
  2.459757e+00    3.334795e+00
  2.482540e+00    3.183231e+00
  2.505322e+00    2.566306e+00
  2.528105e+00    2.257345e+00
  2.550888e+00    2.971662e+00
  2.573671e+00    3.410688e+00
  2.596454e+00    3.813206e+00
  2.619236e+00    4.600119e+00
  2.642019e+00    4.950076e+00
  2.664802e+00    4.750443e+00
  2.687585e+00    4.254925e+00
  2.710368e+00    3.615363e+00
  2.733150e+00    3.293211e+00
  2.755933e+00    3.055571e+00
  2.778716e+00    2.920008e+00
  2.801499e+00    2.667944e+00
  2.824282e+00    2.569534e+00
  2.847064e+00    2.717504e+00
  2.869847e+00    2.878600e+00
  2.892630e+00    2.847741e+00
  2.915413e+00    2.443407e+00
  2.938196e+00    2.251709e+00
  2.960978e+00    1.938740e+00
  2.983761e+00    1.872711e+00
  3.006544e+00    1.665438e+00
  3.029327e+00    1.543378e+00
  3.052110e+00    1.722030e+00
  3.074892e+00    2.760594e+00
  3.097675e+00    2.881038e+00
  3.120458e+00    2.621154e+00
  3.143241e+00    2.853292e+00
  3.166023e+00    2.785537e+00
  3.188806e+00    2.544246e+00
  3.211589e+00    2.827596e+00
  3.234372e+00    3.458157e+00
  3.257155e+00    4.127564e+00
  3.279937e+00    5.257751e+00
  3.302720e+00    6.142966e+00
  3.325503e+00    6.065403e+00
  3.348286e+00    4.889467e+00
  3.371069e+00    3.548614e+00
  3.393851e+00    2.923587e+00
  3.416634e+00    2.730628e+00
  3.439417e+00    2.649456e+00
  3.462200e+00    3.276962e+00
  3.484983e+00    3.894066e+00
  3.507765e+00    3.385363e+00
  3.530548e+00    2.811457e+00
  3.553331e+00    2.436660e+00
  3.576114e+00    2.670254e+00
  3.598897e+00    3.547140e+00
  3.621679e+00    3.787989e+00
  3.644462e+00    4.080842e+00
  3.667245e+00    4.827429e+00
  3.690028e+00    5.874792e+00
  3.712811e+00    6.656631e+00
  3.735593e+00    6.750903e+00
  3.758376e+00    6.312621e+00
  3.781159e+00    5.608217e+00
  3.803942e+00    4.831081e+00
  3.826725e+00    4.009168e+00
  3.849507e+00    3.368392e+00
  3.872290e+00    2.978817e+00
  3.895073e+00    2.795233e+00
  3.917856e+00    2.886714e+00
  3.940638e+00    2.783763e+00
  3.963421e+00    2.494350e+00
  3.986204e+00    2.405024e+00
  4.008987e+00    2.717604e+00
  4.031770e+00    3.031472e+00
  4.054552e+00    3.446767e+00
  4.077335e+00    3.838999e+00
  4.100118e+00    4.372425e+00
  4.122901e+00    4.126491e+00
  4.145684e+00    3.464722e+00
  4.168466e+00    3.289753e+00
  4.191249e+00    3.362958e+00
  4.214032e+00    3.746288e+00
  4.236815e+00    3.933418e+00
  4.259598e+00    3.823755e+00
  4.282380e+00    3.421172e+00
  4.305163e+00    3.425026e+00
  4.327946e+00    3.234738e+00
  4.350729e+00    2.704375e+00
  4.373512e+00    2.548599e+00
  4.396294e+00    2.659902e+00
  4.419077e+00    2.468977e+00
  4.441860e+00    2.154843e+00
  4.464643e+00    2.186630e+00
  4.487426e+00    2.416046e+00
  4.510208e+00    2.360539e+00
  4.532991e+00    2.268319e+00
  4.555774e+00    2.543364e+00
  4.578557e+00    2.529705e+00
  4.601340e+00    2.619024e+00
  4.624122e+00    2.702617e+00
  4.646905e+00    2.694803e+00
  4.669688e+00    2.749137e+00
  4.692471e+00    2.793763e+00
  4.715253e+00    2.733071e+00
  4.738036e+00    2.427342e+00
  4.760819e+00    2.463149e+00
  4.783602e+00    2.398601e+00
  4.806385e+00    2.258999e+00
  4.829167e+00    2.377415e+00
  4.851950e+00    2.571553e+00
  4.874733e+00    2.403772e+00
  4.897516e+00    2.353629e+00
  4.920299e+00    2.631531e+00
  4.943081e+00    2.663898e+00
  4.965864e+00    2.590433e+00
  4.988647e+00    2.732962e+00
  5.011430e+00    2.565885e+00
  5.034213e+00    2.298566e+00
  5.056995e+00    2.127527e+00
  5.079778e+00    2.123924e+00
  5.102561e+00    1.949844e+00
  5.125344e+00    2.099046e+00
  5.148127e+00    2.088353e+00
  5.170909e+00    2.111040e+00
  5.193692e+00    2.235025e+00
  5.216475e+00    1.953849e+00
  5.239258e+00    2.291597e+00
  5.262041e+00    2.423036e+00
  5.284823e+00    2.058350e+00
  5.307606e+00    1.846211e+00
  5.330389e+00    1.962402e+00
  5.353172e+00    2.030030e+00
  5.375955e+00    2.162401e+00
  5.398737e+00    2.295416e+00
  5.421520e+00    2.291506e+00
  5.444303e+00    2.066609e+00
  5.467086e+00    1.876355e+00
  5.489869e+00    1.922969e+00
  5.512651e+00    1.988411e+00
  5.535434e+00    1.992431e+00
  5.558217e+00    1.699990e+00
  5.581000e+00    1.396867e+00
  5.603782e+00    1.374144e+00
  5.626565e+00    1.427868e+00
  5.649348e+00    1.572330e+00
  5.672131e+00    1.644473e+00
  5.694914e+00    1.203264e+00
  5.717696e+00    1.326084e+00
  5.740479e+00    1.459128e+00
  5.763262e+00    1.569285e+00
  5.786045e+00    1.632164e+00
  5.808828e+00    1.395878e+00
  5.831610e+00    1.464001e+00
  5.854393e+00    1.617592e+00
  5.877176e+00    1.694810e+00
  5.899959e+00    1.786286e+00
  5.922742e+00    1.867974e+00
  5.945524e+00    2.129828e+00
  5.968307e+00    2.094126e+00
  5.991090e+00    2.052647e+00
  6.013873e+00    2.006516e+00
  6.036656e+00    1.906088e+00
  6.059438e+00    1.937927e+00
  6.082221e+00    1.923833e+00
  6.105004e+00    1.708604e+00
  6.127787e+00    1.920361e+00
  6.150570e+00    1.920813e+00
  6.173352e+00    1.868535e+00
  6.196135e+00    1.750526e+00
  6.218918e+00    1.601166e+00
  6.241701e+00    1.920892e+00
  6.264484e+00    2.127375e+00
  6.287266e+00    2.049621e+00
  6.310049e+00    2.032308e+00
  6.332832e+00    2.048619e+00
  6.355615e+00    1.947604e+00
  6.378397e+00    1.894289e+00
  6.401180e+00    1.713302e+00
  6.423963e+00    1.668562e+00
  6.446746e+00    1.757597e+00
  6.469529e+00    1.777878e+00
  6.492311e+00    1.742488e+00
  6.515094e+00    1.676124e+00
  6.537877e+00    1.565237e+00
  6.560660e+00    1.690942e+00
  6.583443e+00    1.972706e+00
  6.606225e+00    2.005250e+00
  6.629008e+00    2.065873e+00
  6.651791e+00    2.038543e+00
  6.674574e+00    1.913786e+00
  6.697357e+00    1.908488e+00
  6.720139e+00    1.689668e+00
  6.742922e+00    1.780596e+00
  6.765705e+00    2.130891e+00
  6.788488e+00    2.088878e+00
  6.811271e+00    1.975278e+00
  6.834053e+00    1.907278e+00
  6.856836e+00    1.972114e+00
  6.879619e+00    1.923581e+00
  6.902402e+00    1.828676e+00
  6.925185e+00    1.810812e+00
  6.947967e+00    1.943673e+00
  6.970750e+00    2.052387e+00
  6.993533e+00    2.063406e+00
  7.016316e+00    1.969943e+00
  7.039099e+00    1.889313e+00
  7.061881e+00    1.898691e+00
  7.084664e+00    1.991312e+00
  7.107447e+00    2.014294e+00
  7.130230e+00    2.014530e+00
  7.153013e+00    2.063847e+00
  7.175795e+00    1.960925e+00
  7.198578e+00    1.939167e+00
  7.221361e+00    1.857493e+00
  7.244144e+00    1.768937e+00
  7.266926e+00    1.749464e+00
  7.289709e+00    1.829110e+00
  7.312492e+00    1.792515e+00
  7.335275e+00    1.850327e+00
  7.358058e+00    1.898639e+00
  7.380840e+00    1.854687e+00
  7.403623e+00    2.087756e+00
  7.426406e+00    2.094719e+00
  7.449189e+00    1.973355e+00
  7.471972e+00    2.005734e+00
  7.494754e+00    1.945787e+00
  7.517537e+00    1.937021e+00
  7.540320e+00    1.849942e+00
  7.563103e+00    1.985115e+00
  7.585886e+00    1.850968e+00
  7.608668e+00    1.789572e+00
  7.631451e+00    1.603150e+00
  7.654234e+00    1.606377e+00
  7.677017e+00    1.791201e+00
  7.699800e+00    1.896150e+00
  7.722582e+00    1.771883e+00
  7.745365e+00    1.735641e+00
  7.768148e+00    1.851092e+00
  7.790931e+00    1.947626e+00
  7.813714e+00    1.977215e+00
  7.836496e+00    2.011274e+00
  7.859279e+00    1.916545e+00
  7.882062e+00    1.889786e+00
  7.904845e+00    1.850509e+00
  7.927628e+00    1.844061e+00
  7.950410e+00    1.819671e+00
  7.973193e+00    1.719328e+00
  7.995976e+00    1.826610e+00
  8.018759e+00    1.844298e+00
  8.041541e+00    1.913796e+00
  8.064324e+00    1.854411e+00
  8.087107e+00    1.647301e+00
  8.109890e+00    1.630201e+00
  8.132673e+00    1.768831e+00
  8.155455e+00    1.863687e+00
  8.178238e+00    1.730867e+00
  8.201021e+00    1.726565e+00
  8.223804e+00    1.771288e+00
  8.246587e+00    1.801511e+00
  8.269369e+00    1.766909e+00
  8.292152e+00    1.715904e+00
  8.314935e+00    1.714951e+00
  8.337718e+00    1.780129e+00
  8.360501e+00    1.954834e+00
  8.383283e+00    1.983500e+00
  8.406066e+00    2.067736e+00
  8.428849e+00    2.033982e+00
  8.451632e+00    1.975602e+00
  8.474415e+00    1.681414e+00
  8.497197e+00    1.530825e+00
  8.519980e+00    1.734628e+00
  8.542763e+00    1.786114e+00
  8.565546e+00    1.697145e+00
  8.588329e+00    1.729615e+00
  8.611111e+00    1.735765e+00
  8.633894e+00    1.728249e+00
  8.656677e+00    1.702724e+00
  8.679460e+00    1.670406e+00
  8.702243e+00    1.677230e+00
  8.725025e+00    1.547073e+00
  8.747808e+00    1.562017e+00
  8.770591e+00    1.679493e+00
  8.793374e+00    1.630230e+00
  8.816156e+00    1.482037e+00
  8.838939e+00    1.576514e+00
  8.861722e+00    1.496638e+00
  8.884505e+00    1.603440e+00
  8.907288e+00    1.617078e+00
  8.930070e+00    1.602431e+00
  8.952853e+00    1.570211e+00
  8.975636e+00    1.640744e+00
  8.998419e+00    1.788140e+00
  9.021202e+00    1.757057e+00
  9.043984e+00    1.696263e+00
  9.066767e+00    1.571491e+00
  9.089550e+00    1.480582e+00
  9.112333e+00    1.441267e+00
  9.135116e+00    1.513153e+00
  9.157898e+00    1.477534e+00
  9.180681e+00    1.496422e+00
  9.203464e+00    1.494851e+00
  9.226247e+00    1.618737e+00
  9.249030e+00    1.742360e+00
  9.271812e+00    1.498361e+00
  9.294595e+00    1.481482e+00
  9.317378e+00    1.538434e+00
  9.340161e+00    1.632012e+00
  9.362944e+00    1.693462e+00
  9.385726e+00    1.683663e+00
  9.408509e+00    1.644204e+00
  9.431292e+00    1.726658e+00
  9.454075e+00    1.600193e+00
  9.476858e+00    1.621830e+00
  9.499640e+00    1.613985e+00
  9.522423e+00    1.589813e+00
  9.545206e+00    1.603665e+00
  9.567989e+00    1.637606e+00
  9.590772e+00    1.662927e+00
  9.613554e+00    1.785634e+00
  9.636337e+00    1.712633e+00
  9.659120e+00    1.725545e+00
  9.681903e+00    1.691020e+00
  9.704685e+00    1.581612e+00
  9.727468e+00    1.459478e+00
  9.750251e+00    1.517582e+00
  9.773034e+00    1.558627e+00
  9.795817e+00    1.724833e+00
  9.818599e+00    1.695721e+00
  9.841382e+00    1.588383e+00
  9.864165e+00    1.626684e+00
  9.886948e+00    1.621925e+00
  9.909731e+00    1.679407e+00
  9.932513e+00    1.582515e+00
  9.955296e+00    1.559819e+00
  9.978079e+00    1.710062e+00
  1.000086e+01    1.699091e+00
  1.002364e+01    1.685691e+00
  1.004643e+01    1.749148e+00
  1.006921e+01    1.768977e+00
  1.009199e+01    1.639150e+00
  1.011478e+01    1.632548e+00
  1.013756e+01    1.633698e+00
  1.016034e+01    1.723492e+00
  1.018312e+01    1.763106e+00
  1.020591e+01    1.591494e+00
  1.022869e+01    1.563205e+00
  1.025147e+01    1.631838e+00
  1.027426e+01    1.685109e+00
  1.029704e+01    1.752234e+00
  1.031982e+01    1.760868e+00
  1.034260e+01    1.774850e+00
  1.036539e+01    1.819734e+00
  1.038817e+01    1.733839e+00
  1.041095e+01    1.721393e+00
  1.043373e+01    1.752996e+00
  1.045652e+01    1.585541e+00
  1.047930e+01    1.639557e+00
  1.050208e+01    1.607307e+00
  1.052487e+01    1.531568e+00
  1.054765e+01    1.569540e+00
  1.057043e+01    1.694020e+00
  1.059321e+01    1.663092e+00
  1.061600e+01    1.608916e+00
  1.063878e+01    1.636263e+00
  1.066156e+01    1.650077e+00
  1.068435e+01    1.679663e+00
  1.070713e+01    1.656726e+00
  1.072991e+01    1.695137e+00
  1.075269e+01    1.674939e+00
  1.077548e+01    1.677409e+00
  1.079826e+01    1.694547e+00
  1.082104e+01    1.683412e+00
  1.084383e+01    1.778490e+00
  1.086661e+01    1.678815e+00
  1.088939e+01    1.653189e+00
  1.091217e+01    1.639062e+00
  1.093496e+01    1.613414e+00
  1.095774e+01    1.601956e+00
  1.098052e+01    1.680019e+00
  1.100330e+01    1.675470e+00
  1.102609e+01    1.590397e+00
  1.104887e+01    1.642327e+00
  1.107165e+01    1.797840e+00
  1.109444e+01    1.800335e+00
  1.111722e+01    1.729050e+00
  1.114000e+01    1.617091e+00
  1.116278e+01    1.588373e+00
  1.118557e+01    1.636979e+00
  1.120835e+01    1.612888e+00
  1.123113e+01    1.594730e+00
  1.125392e+01    1.632644e+00
  1.127670e+01    1.675070e+00
  1.129948e+01    1.677260e+00
  1.132226e+01    1.609781e+00
  1.134505e+01    1.666296e+00
  1.136783e+01    1.634781e+00
  1.139061e+01    1.568413e+00
  1.141340e+01    1.674238e+00
  1.143618e+01    1.598420e+00
  1.145896e+01    1.633079e+00
  1.148174e+01    1.620083e+00
  1.150453e+01    1.635038e+00
  1.152731e+01    1.613292e+00
  1.155009e+01    1.603081e+00
  1.157287e+01    1.725314e+00
  1.159566e+01    1.665148e+00
  1.161844e+01    1.643785e+00
  1.164122e+01    1.729101e+00
  1.166401e+01    1.720427e+00
  1.168679e+01    1.610271e+00
  1.170957e+01    1.568635e+00
  1.173235e+01    1.603393e+00
  1.175514e+01    1.657051e+00
  1.177792e+01    1.691054e+00
  1.180070e+01    1.722161e+00
  1.182349e+01    1.653080e+00
  1.184627e+01    1.605791e+00
  1.186905e+01    1.605310e+00
  1.189183e+01    1.579252e+00
  1.191462e+01    1.617101e+00
  1.193740e+01    1.636615e+00
  1.196018e+01    1.708312e+00
  1.198296e+01    1.767334e+00
  1.200575e+01    1.731147e+00
  1.202853e+01    1.628009e+00
  1.205131e+01    1.595580e+00
  1.207410e+01    1.665225e+00
  1.209688e+01    1.654421e+00
  1.211966e+01    1.604549e+00
  1.214244e+01    1.688056e+00
  1.216523e+01    1.646274e+00
  1.218801e+01    1.565777e+00
  1.221079e+01    1.578654e+00
  1.223358e+01    1.582835e+00
  1.225636e+01    1.597133e+00
  1.227914e+01    1.551584e+00
  1.230192e+01    1.598807e+00
  1.232471e+01    1.559249e+00
  1.234749e+01    1.571828e+00
  1.237027e+01    1.633518e+00
  1.239306e+01    1.593592e+00
  1.241584e+01    1.643972e+00
  1.243862e+01    1.760523e+00
  1.246140e+01    1.628447e+00
  1.248419e+01    1.582988e+00
  1.250697e+01    1.560902e+00
  1.252975e+01    1.684105e+00
  1.255253e+01    1.714632e+00
  1.257532e+01    1.709151e+00
  1.259810e+01    1.610051e+00
  1.262088e+01    1.569563e+00
  1.264367e+01    1.639392e+00
  1.266645e+01    1.685432e+00
  1.268923e+01    1.508746e+00
  1.271201e+01    1.558267e+00
  1.273480e+01    1.578828e+00
  1.275758e+01    1.507168e+00
  1.278036e+01    1.533676e+00
  1.280315e+01    1.664459e+00
  1.282593e+01    1.603981e+00
  1.284871e+01    1.578821e+00
  1.287149e+01    1.519420e+00
  1.289428e+01    1.525452e+00
  1.291706e+01    1.450348e+00
  1.293984e+01    1.425207e+00
  1.296263e+01    1.408101e+00
  1.298541e+01    1.565303e+00
  1.300819e+01    1.606308e+00
  1.303097e+01    1.674633e+00
  1.305376e+01    1.598552e+00
  1.307654e+01    1.580151e+00
  1.309932e+01    1.516583e+00
  1.312210e+01    1.471460e+00
  1.314489e+01    1.477221e+00
  1.316767e+01    1.609438e+00
  1.319045e+01    1.609662e+00
  1.321324e+01    1.572870e+00
  1.323602e+01    1.610644e+00
  1.325880e+01    1.670180e+00
  1.328158e+01    1.616724e+00
  1.330437e+01    1.578814e+00
  1.332715e+01    1.595455e+00
  1.334993e+01    1.604280e+00
  1.337272e+01    1.628831e+00
  1.339550e+01    1.598084e+00
  1.341828e+01    1.609270e+00
  1.344106e+01    1.541657e+00
  1.346385e+01    1.635665e+00
  1.348663e+01    1.601730e+00
  1.350941e+01    1.532645e+00
  1.353219e+01    1.524838e+00
  1.355498e+01    1.561929e+00
  1.357776e+01    1.586665e+00
  1.360054e+01    1.634077e+00
  1.362333e+01    1.600919e+00
  1.364611e+01    1.588901e+00
  1.366889e+01    1.653168e+00
  1.369167e+01    1.653241e+00
  1.371446e+01    1.550526e+00
  1.373724e+01    1.542542e+00
  1.376002e+01    1.526219e+00
  1.378281e+01    1.504294e+00
  1.380559e+01    1.463894e+00
  1.382837e+01    1.568947e+00
  1.385115e+01    1.510438e+00
  1.387394e+01    1.505063e+00
  1.389672e+01    1.475661e+00
  1.391950e+01    1.518327e+00
  1.394229e+01    1.614374e+00
  1.396507e+01    1.584751e+00
  1.398785e+01    1.560853e+00
  1.401063e+01    1.651116e+00
  1.403342e+01    1.523130e+00
  1.405620e+01    1.490603e+00
  1.407898e+01    1.518244e+00
  1.410176e+01    1.504747e+00
  1.412455e+01    1.526477e+00
  1.414733e+01    1.565545e+00
  1.417011e+01    1.580841e+00
  1.419290e+01    1.551948e+00
  1.421568e+01    1.606073e+00
  1.423846e+01    1.645170e+00
  1.426124e+01    1.550224e+00
  1.428403e+01    1.610260e+00
  1.430681e+01    1.622973e+00
  1.432959e+01    1.513015e+00
  1.435238e+01    1.557776e+00
  1.437516e+01    1.568035e+00
  1.439794e+01    1.497356e+00
  1.442072e+01    1.550766e+00
  1.444351e+01    1.540864e+00
  1.446629e+01    1.498307e+00
  1.448907e+01    1.556704e+00
  1.451186e+01    1.564868e+00
  1.453464e+01    1.645435e+00
  1.455742e+01    1.536510e+00
  1.458020e+01    1.497648e+00
  1.460299e+01    1.551445e+00
  1.462577e+01    1.461904e+00
  1.464855e+01    1.515628e+00
  1.467133e+01    1.504938e+00
  1.469412e+01    1.511476e+00
  1.471690e+01    1.526607e+00
  1.473968e+01    1.491899e+00
  1.476247e+01    1.535998e+00
  1.478525e+01    1.619765e+00
  1.480803e+01    1.554870e+00
  1.483081e+01    1.596610e+00
  1.485360e+01    1.673143e+00
  1.487638e+01    1.625950e+00
  1.489916e+01    1.620743e+00
  1.492195e+01    1.525521e+00
  1.494473e+01    1.508293e+00
  1.496751e+01    1.585350e+00
  1.499029e+01    1.488233e+00
  1.501308e+01    1.548235e+00
  1.503586e+01    1.537426e+00
  1.505864e+01    1.512522e+00
  1.508142e+01    1.512584e+00
  1.510421e+01    1.514467e+00
  1.512699e+01    1.543601e+00
  1.514977e+01    1.510095e+00
  1.517256e+01    1.517008e+00
  1.519534e+01    1.544829e+00
  1.521812e+01    1.582952e+00
  1.524090e+01    1.654971e+00
  1.526369e+01    1.635382e+00
  1.528647e+01    1.605880e+00
  1.530925e+01    1.549401e+00
  1.533204e+01    1.435132e+00
  1.535482e+01    1.470500e+00
  1.537760e+01    1.539604e+00
  1.540038e+01    1.498182e+00
  1.542317e+01    1.550037e+00
  1.544595e+01    1.520680e+00
  1.546873e+01    1.540830e+00
  1.549152e+01    1.453511e+00
  1.551430e+01    1.476464e+00
  1.553708e+01    1.521721e+00
  1.555986e+01    1.563841e+00
  1.558265e+01    1.527669e+00
  1.560543e+01    1.522811e+00
  1.562821e+01    1.530034e+00
  1.565099e+01    1.575364e+00
  1.567378e+01    1.565294e+00
  1.569656e+01    1.550984e+00
  1.571934e+01    1.602190e+00
  1.574213e+01    1.539243e+00
  1.576491e+01    1.552809e+00
  1.578769e+01    1.552126e+00
  1.581047e+01    1.477921e+00
  1.583326e+01    1.526232e+00
  1.585604e+01    1.497568e+00
  1.587882e+01    1.470443e+00
  1.590161e+01    1.559208e+00
  1.592439e+01    1.562841e+00
  1.594717e+01    1.532442e+00
  1.596995e+01    1.523105e+00
  1.599274e+01    1.547844e+00
  1.601552e+01    1.557451e+00
  1.603830e+01    1.555985e+00
  1.606109e+01    1.639879e+00
  1.608387e+01    1.625718e+00
  1.610665e+01    1.523231e+00
  1.612943e+01    1.544079e+00
  1.615222e+01    1.577543e+00
  1.617500e+01    1.531325e+00
  1.619778e+01    1.510499e+00
  1.622056e+01    1.521205e+00
  1.624335e+01    1.486950e+00
  1.626613e+01    1.467961e+00
  1.628891e+01    1.546809e+00
  1.631170e+01    1.564918e+00
  1.633448e+01    1.529998e+00
  1.635726e+01    1.496708e+00
  1.638004e+01    1.435839e+00
  1.640283e+01    1.484255e+00
  1.642561e+01    1.475659e+00
  1.644839e+01    1.453436e+00
  1.647118e+01    1.455517e+00
  1.649396e+01    1.460303e+00
  1.651674e+01    1.511302e+00
  1.653952e+01    1.554576e+00
  1.656231e+01    1.472780e+00
  1.658509e+01    1.411974e+00
  1.660787e+01    1.459221e+00
  1.663065e+01    1.534750e+00
  1.665344e+01    1.549253e+00
  1.667622e+01    1.539516e+00
  1.669900e+01    1.524942e+00
  1.672179e+01    1.542267e+00
  1.674457e+01    1.504392e+00
  1.676735e+01    1.480040e+00
  1.679013e+01    1.447831e+00
  1.681292e+01    1.496444e+00
  1.683570e+01    1.538649e+00
  1.685848e+01    1.468987e+00
  1.688127e+01    1.536446e+00
  1.690405e+01    1.571066e+00
  1.692683e+01    1.556339e+00
  1.694961e+01    1.499079e+00
  1.697240e+01    1.486375e+00
  1.699518e+01    1.502603e+00
  1.701796e+01    1.414158e+00
  1.704075e+01    1.383821e+00
  1.706353e+01    1.508720e+00
  1.708631e+01    1.546925e+00
  1.710909e+01    1.583591e+00
  1.713188e+01    1.471504e+00
  1.715466e+01    1.491057e+00
  1.717744e+01    1.471679e+00
  1.720022e+01    1.495918e+00
  1.722301e+01    1.481777e+00
  1.724579e+01    1.553534e+00
  1.726857e+01    1.473727e+00
  1.729136e+01    1.444955e+00
  1.731414e+01    1.498736e+00
  1.733692e+01    1.501451e+00
  1.735970e+01    1.545155e+00
  1.738249e+01    1.519553e+00
  1.740527e+01    1.536953e+00
  1.742805e+01    1.435461e+00
  1.745084e+01    1.445436e+00
  1.747362e+01    1.486051e+00
  1.749640e+01    1.529711e+00
  1.751918e+01    1.516447e+00
  1.754197e+01    1.492166e+00
  1.756475e+01    1.390224e+00
  1.758753e+01    1.517131e+00
  1.761032e+01    1.566970e+00
  1.763310e+01    1.468520e+00
  1.765588e+01    1.457543e+00
  1.767866e+01    1.440962e+00
  1.770145e+01    1.497686e+00
  1.772423e+01    1.510741e+00
  1.774701e+01    1.502703e+00
  1.776979e+01    1.481715e+00
  1.779258e+01    1.525373e+00
  1.781536e+01    1.524446e+00
  1.783814e+01    1.539235e+00
  1.786093e+01    1.542097e+00
  1.788371e+01    1.478651e+00
  1.790649e+01    1.476010e+00
  1.792927e+01    1.527029e+00
  1.795206e+01    1.478039e+00
  1.797484e+01    1.471838e+00
  1.799762e+01    1.512398e+00
  1.802041e+01    1.541879e+00
  1.804319e+01    1.505428e+00
  1.806597e+01    1.587062e+00
  1.808875e+01    1.566900e+00
  1.811154e+01    1.521579e+00
  1.813432e+01    1.481757e+00
  1.815710e+01    1.556821e+00
  1.817989e+01    1.542095e+00
  1.820267e+01    1.520547e+00
  1.822545e+01    1.444439e+00
  1.824823e+01    1.355110e+00
  1.827102e+01    1.385380e+00
  1.829380e+01    1.398953e+00
  1.831658e+01    1.456489e+00
  1.833936e+01    1.470580e+00
  1.836215e+01    1.420941e+00
  1.838493e+01    1.487333e+00
  1.840771e+01    1.467577e+00
  1.843050e+01    1.470406e+00
  1.845328e+01    1.465778e+00
  1.847606e+01    1.537989e+00
  1.849884e+01    1.454476e+00
  1.852163e+01    1.448483e+00
  1.854441e+01    1.452872e+00
  1.856719e+01    1.492727e+00
  1.858998e+01    1.468205e+00
  1.861276e+01    1.486095e+00
  1.863554e+01    1.446057e+00
  1.865832e+01    1.449618e+00
  1.868111e+01    1.521344e+00
  1.870389e+01    1.495287e+00
  1.872667e+01    1.429788e+00
  1.874945e+01    1.428445e+00
  1.877224e+01    1.452285e+00
  1.879502e+01    1.467654e+00
  1.881780e+01    1.509122e+00
  1.884059e+01    1.511242e+00
  1.886337e+01    1.523548e+00
  1.888615e+01    1.488400e+00
  1.890893e+01    1.474589e+00
  1.893172e+01    1.500917e+00
  1.895450e+01    1.481439e+00
  1.897728e+01    1.519467e+00
  1.900007e+01    1.470731e+00
  1.902285e+01    1.455037e+00
  1.904563e+01    1.386028e+00
  1.906841e+01    1.382376e+00
  1.909120e+01    1.479532e+00
  1.911398e+01    1.511271e+00
  1.913676e+01    1.438491e+00
  1.915955e+01    1.480560e+00
  1.918233e+01    1.476401e+00
  1.920511e+01    1.403144e+00
  1.922789e+01    1.439458e+00
  1.925068e+01    1.383556e+00
  1.927346e+01    1.408469e+00
  1.929624e+01    1.445658e+00
  1.931902e+01    1.452365e+00
  1.934181e+01    1.441073e+00
  1.936459e+01    1.417686e+00
  1.938737e+01    1.445828e+00
  1.941016e+01    1.441249e+00
  1.943294e+01    1.395404e+00
  1.945572e+01    1.418246e+00
  1.947850e+01    1.469848e+00
  1.950129e+01    1.441362e+00
  1.952407e+01    1.437989e+00
  1.954685e+01    1.455694e+00
  1.956964e+01    1.436319e+00
  1.959242e+01    1.497078e+00
  1.961520e+01    1.486650e+00
  1.963798e+01    1.438039e+00
  1.966077e+01    1.424440e+00
  1.968355e+01    1.478126e+00
  1.970633e+01    1.473999e+00
  1.972912e+01    1.408045e+00
  1.975190e+01    1.491873e+00
  1.977468e+01    1.495768e+00
  1.979746e+01    1.392741e+00
  1.982025e+01    1.414251e+00
  1.984303e+01    1.388664e+00
  1.986581e+01    1.318582e+00
  1.988859e+01    1.424470e+00
  1.991138e+01    1.446024e+00
  1.993416e+01    1.339989e+00
  1.995694e+01    1.394463e+00
  1.997973e+01    1.469622e+00
  2.000251e+01    1.383919e+00
  2.002529e+01    1.383093e+00
  2.004807e+01    1.441675e+00
  2.007086e+01    1.455231e+00
  2.009364e+01    1.416499e+00
  2.011642e+01    1.416744e+00
  2.013921e+01    1.440881e+00
  2.016199e+01    1.406570e+00
  2.018477e+01    1.403575e+00
  2.020755e+01    1.407973e+00
  2.023034e+01    1.428880e+00
  2.025312e+01    1.417170e+00
  2.027590e+01    1.467702e+00
  2.029868e+01    1.482579e+00
  2.032147e+01    1.503167e+00
  2.034425e+01    1.449147e+00
  2.036703e+01    1.415262e+00
  2.038982e+01    1.472110e+00
  2.041260e+01    1.439561e+00
  2.043538e+01    1.407442e+00
  2.045816e+01    1.426372e+00
  2.048095e+01    1.380923e+00
  2.050373e+01    1.363496e+00
  2.052651e+01    1.392443e+00
  2.054930e+01    1.386830e+00
  2.057208e+01    1.438753e+00
  2.059486e+01    1.432935e+00
  2.061764e+01    1.349887e+00
  2.064043e+01    1.393560e+00
  2.066321e+01    1.432940e+00
  2.068599e+01    1.409423e+00
  2.070878e+01    1.417722e+00
  2.073156e+01    1.371757e+00
  2.075434e+01    1.404105e+00
  2.077712e+01    1.437937e+00
  2.079991e+01    1.371183e+00
  2.082269e+01    1.319369e+00
  2.084547e+01    1.429165e+00
  2.086825e+01    1.380492e+00
  2.089104e+01    1.453014e+00
  2.091382e+01    1.399462e+00
  2.093660e+01    1.448677e+00
  2.095939e+01    1.517667e+00
  2.098217e+01    1.413172e+00
  2.100495e+01    1.329454e+00
  2.102773e+01    1.314166e+00
  2.105052e+01    1.394444e+00
  2.107330e+01    1.445929e+00
  2.109608e+01    1.399614e+00
  2.111887e+01    1.364197e+00
  2.114165e+01    1.387398e+00
  2.116443e+01    1.345401e+00
  2.118721e+01    1.355720e+00
  2.121000e+01    1.327929e+00
  2.123278e+01    1.357073e+00
  2.125556e+01    1.390512e+00
  2.127835e+01    1.401255e+00
  2.130113e+01    1.365124e+00
  2.132391e+01    1.373923e+00
  2.134669e+01    1.439327e+00
  2.136948e+01    1.415442e+00
  2.139226e+01    1.339327e+00
  2.141504e+01    1.348443e+00
  2.143782e+01    1.320216e+00
  2.146061e+01    1.387651e+00
  2.148339e+01    1.331085e+00
  2.150617e+01    1.337350e+00
  2.152896e+01    1.309792e+00
  2.155174e+01    1.364128e+00
  2.157452e+01    1.349422e+00
  2.159730e+01    1.380497e+00
  2.162009e+01    1.412906e+00
  2.164287e+01    1.345859e+00
  2.166565e+01    1.321898e+00
  2.168844e+01    1.353613e+00
  2.171122e+01    1.304717e+00
  2.173400e+01    1.250689e+00
  2.175678e+01    1.322376e+00
  2.177957e+01    1.364503e+00
  2.180235e+01    1.426867e+00
  2.182513e+01    1.411441e+00
  2.184791e+01    1.420384e+00
  2.187070e+01    1.339707e+00
  2.189348e+01    1.355441e+00
  2.191626e+01    1.328920e+00
  2.193905e+01    1.392118e+00
  2.196183e+01    1.427291e+00
  2.198461e+01    1.361288e+00
  2.200739e+01    1.335840e+00
  2.203018e+01    1.304153e+00
  2.205296e+01    1.348400e+00
  2.207574e+01    1.332953e+00
  2.209853e+01    1.361032e+00
  2.212131e+01    1.401584e+00
  2.214409e+01    1.415195e+00
  2.216687e+01    1.298074e+00
  2.218966e+01    1.260873e+00
  2.221244e+01    1.375564e+00
  2.223522e+01    1.347240e+00
  2.225801e+01    1.374887e+00
  2.228079e+01    1.318631e+00
  2.230357e+01    1.311085e+00
  2.232635e+01    1.369820e+00
  2.234914e+01    1.366643e+00
  2.237192e+01    1.374493e+00
  2.239470e+01    1.280045e+00
  2.241748e+01    1.322728e+00
  2.244027e+01    1.369393e+00
  2.246305e+01    1.332154e+00
  2.248583e+01    1.387621e+00
  2.250862e+01    1.413603e+00
  2.253140e+01    1.329100e+00
  2.255418e+01    1.315379e+00
  2.257696e+01    1.318041e+00
  2.259975e+01    1.408929e+00
  2.262253e+01    1.401247e+00
  2.264531e+01    1.408748e+00
  2.266810e+01    1.357213e+00
  2.269088e+01    1.385930e+00
  2.271366e+01    1.401603e+00
  2.273644e+01    1.401230e+00
  2.275923e+01    1.376449e+00
  2.278201e+01    1.307302e+00
  2.280479e+01    1.334181e+00
  2.282758e+01    1.299992e+00
  2.285036e+01    1.314393e+00
  2.287314e+01    1.322559e+00
  2.289592e+01    1.299320e+00
  2.291871e+01    1.315212e+00
  2.294149e+01    1.360022e+00
  2.296427e+01    1.333291e+00
  2.298705e+01    1.365357e+00
  2.300984e+01    1.344528e+00
  2.303262e+01    1.318677e+00
  2.305540e+01    1.300709e+00
  2.307819e+01    1.324458e+00
  2.310097e+01    1.270485e+00
  2.312375e+01    1.341345e+00
  2.314653e+01    1.312701e+00
  2.316932e+01    1.292108e+00
  2.319210e+01    1.346417e+00
  2.321488e+01    1.373527e+00
  2.323767e+01    1.330231e+00
  2.326045e+01    1.354727e+00
  2.328323e+01    1.332178e+00
  2.330601e+01    1.312571e+00
  2.332880e+01    1.325518e+00
  2.335158e+01    1.316476e+00
  2.337436e+01    1.313432e+00
  2.339714e+01    1.298384e+00
  2.341993e+01    1.347842e+00
  2.344271e+01    1.317351e+00
  2.346549e+01    1.301102e+00
  2.348828e+01    1.302442e+00
  2.351106e+01    1.302894e+00
  2.353384e+01    1.334793e+00
  2.355662e+01    1.370445e+00
  2.357941e+01    1.300473e+00
  2.360219e+01    1.292465e+00
  2.362497e+01    1.344135e+00
  2.364776e+01    1.297011e+00
  2.367054e+01    1.337191e+00
  2.369332e+01    1.333642e+00
  2.371610e+01    1.299809e+00
  2.373889e+01    1.329314e+00
  2.376167e+01    1.333640e+00
  2.378445e+01    1.302231e+00
  2.380724e+01    1.281788e+00
  2.383002e+01    1.293760e+00
  2.385280e+01    1.313355e+00
  2.387558e+01    1.298389e+00
  2.389837e+01    1.302510e+00
  2.392115e+01    1.318105e+00
  2.394393e+01    1.318600e+00
  2.396671e+01    1.313313e+00
  2.398950e+01    1.305387e+00
  2.401228e+01    1.300381e+00
  2.403506e+01    1.333468e+00
  2.405785e+01    1.337437e+00
  2.408063e+01    1.300981e+00
  2.410341e+01    1.315563e+00
  2.412619e+01    1.336819e+00
  2.414898e+01    1.366396e+00
  2.417176e+01    1.369501e+00
  2.419454e+01    1.316780e+00
  2.421733e+01    1.310677e+00
  2.424011e+01    1.346146e+00
  2.426289e+01    1.288093e+00
  2.428567e+01    1.290959e+00
  2.430846e+01    1.291089e+00
  2.433124e+01    1.336093e+00
  2.435402e+01    1.340285e+00
  2.437681e+01    1.326852e+00
  2.439959e+01    1.273500e+00
  2.442237e+01    1.265928e+00
  2.444515e+01    1.300202e+00
  2.446794e+01    1.301143e+00
  2.449072e+01    1.269106e+00
  2.451350e+01    1.241056e+00
  2.453628e+01    1.228619e+00
  2.455907e+01    1.325909e+00
  2.458185e+01    1.280651e+00
  2.460463e+01    1.320090e+00
  2.462742e+01    1.301364e+00
  2.465020e+01    1.301376e+00
  2.467298e+01    1.260166e+00
  2.469576e+01    1.261852e+00
  2.471855e+01    1.303388e+00
  2.474133e+01    1.289542e+00
  2.476411e+01    1.277164e+00
  2.478690e+01    1.274930e+00
  2.480968e+01    1.295087e+00
  2.483246e+01    1.320870e+00
  2.485524e+01    1.290607e+00
  2.487803e+01    1.248773e+00
  2.490081e+01    1.330014e+00
  2.492359e+01    1.382979e+00
  2.494637e+01    1.307451e+00
  2.496916e+01    1.282425e+00
  2.499194e+01    1.273731e+00
  2.501472e+01    1.250213e+00
  2.503751e+01    1.289325e+00
  2.506029e+01    1.253474e+00
  2.508307e+01    1.322307e+00
  2.510585e+01    1.261533e+00
  2.512864e+01    1.215018e+00
  2.515142e+01    1.317536e+00
  2.517420e+01    1.329328e+00
  2.519699e+01    1.263822e+00
  2.521977e+01    1.323676e+00
  2.524255e+01    1.314510e+00
  2.526533e+01    1.307158e+00
  2.528812e+01    1.294606e+00
  2.531090e+01    1.275933e+00
  2.533368e+01    1.292259e+00
  2.535647e+01    1.261228e+00
  2.537925e+01    1.285937e+00
  2.540203e+01    1.256431e+00
  2.542481e+01    1.233142e+00
  2.544760e+01    1.280535e+00
  2.547038e+01    1.285141e+00
  2.549316e+01    1.309550e+00
  2.551594e+01    1.255058e+00
  2.553873e+01    1.269159e+00
  2.556151e+01    1.253001e+00
  2.558429e+01    1.301080e+00
  2.560708e+01    1.345981e+00
  2.562986e+01    1.366743e+00
  2.565264e+01    1.292951e+00
  2.567542e+01    1.313713e+00
  2.569821e+01    1.342026e+00
  2.572099e+01    1.354688e+00
  2.574377e+01    1.312978e+00
  2.576656e+01    1.302269e+00
  2.578934e+01    1.239982e+00
  2.581212e+01    1.252499e+00
  2.583490e+01    1.285110e+00
  2.585769e+01    1.296301e+00
  2.588047e+01    1.291438e+00
  2.590325e+01    1.318074e+00
  2.592604e+01    1.294773e+00
  2.594882e+01    1.272380e+00
  2.597160e+01    1.267293e+00
  2.599438e+01    1.310250e+00
  2.601717e+01    1.247117e+00
  2.603995e+01    1.302822e+00
  2.606273e+01    1.286821e+00
  2.608551e+01    1.306109e+00
  2.610830e+01    1.310035e+00
  2.613108e+01    1.262326e+00
  2.615386e+01    1.339321e+00
  2.617665e+01    1.285514e+00
  2.619943e+01    1.244228e+00
  2.622221e+01    1.270495e+00
  2.624499e+01    1.259726e+00
  2.626778e+01    1.244550e+00
  2.629056e+01    1.283582e+00
  2.631334e+01    1.250393e+00
  2.633613e+01    1.302013e+00
  2.635891e+01    1.260799e+00
  2.638169e+01    1.273350e+00
  2.640447e+01    1.312528e+00
  2.642726e+01    1.319070e+00
  2.645004e+01    1.282328e+00
  2.647282e+01    1.312158e+00
  2.649560e+01    1.303847e+00
  2.651839e+01    1.296654e+00
  2.654117e+01    1.285508e+00
  2.656395e+01    1.285838e+00
  2.658674e+01    1.346013e+00
  2.660952e+01    1.314668e+00
  2.663230e+01    1.320683e+00
  2.665508e+01    1.285028e+00
  2.667787e+01    1.309602e+00
  2.670065e+01    1.268403e+00
  2.672343e+01    1.289942e+00
  2.674622e+01    1.301548e+00
  2.676900e+01    1.306335e+00
  2.679178e+01    1.295125e+00
  2.681456e+01    1.284874e+00
  2.683735e+01    1.307838e+00
  2.686013e+01    1.309430e+00
  2.688291e+01    1.235366e+00
  2.690570e+01    1.256777e+00
  2.692848e+01    1.297691e+00
  2.695126e+01    1.317103e+00
  2.697404e+01    1.282623e+00
  2.699683e+01    1.312759e+00
  2.701961e+01    1.321056e+00
  2.704239e+01    1.328990e+00
  2.706517e+01    1.316748e+00
  2.708796e+01    1.316798e+00
  2.711074e+01    1.307748e+00
  2.713352e+01    1.334230e+00
  2.715631e+01    1.323685e+00
  2.717909e+01    1.284624e+00
  2.720187e+01    1.300933e+00
  2.722465e+01    1.331894e+00
  2.724744e+01    1.340659e+00
  2.727022e+01    1.312855e+00
  2.729300e+01    1.317316e+00
  2.731579e+01    1.308823e+00
  2.733857e+01    1.353181e+00
  2.736135e+01    1.329841e+00
  2.738413e+01    1.355912e+00
  2.740692e+01    1.328383e+00
  2.742970e+01    1.332377e+00
  2.745248e+01    1.348226e+00
  2.747527e+01    1.322906e+00
  2.749805e+01    1.387031e+00
  2.752083e+01    1.361053e+00
  2.754361e+01    1.345831e+00
  2.756640e+01    1.378017e+00
  2.758918e+01    1.412995e+00
  2.761196e+01    1.377277e+00
  2.763474e+01    1.399788e+00
  2.765753e+01    1.343328e+00
  2.768031e+01    1.342912e+00
  2.770309e+01    1.340062e+00
  2.772588e+01    1.339348e+00
  2.774866e+01    1.353242e+00
  2.777144e+01    1.330816e+00
  2.779422e+01    1.308898e+00
  2.781701e+01    1.258185e+00
  2.783979e+01    1.314393e+00
  2.786257e+01    1.395569e+00
  2.788536e+01    1.402407e+00
  2.790814e+01    1.316432e+00
  2.793092e+01    1.327890e+00
  2.795370e+01    1.393596e+00
  2.797649e+01    1.359252e+00
  2.799927e+01    1.374702e+00
  2.802205e+01    1.360861e+00
  2.804483e+01    1.328127e+00
  2.806762e+01    1.359903e+00
  2.809040e+01    1.343190e+00
  2.811318e+01    1.346759e+00
  2.813597e+01    1.413877e+00
  2.815875e+01    1.322078e+00
  2.818153e+01    1.344743e+00
  2.820431e+01    1.302798e+00
  2.822710e+01    1.336194e+00
  2.824988e+01    1.323279e+00
  2.827266e+01    1.303220e+00
  2.829545e+01    1.375906e+00
  2.831823e+01    1.367571e+00
  2.834101e+01    1.318984e+00
  2.836379e+01    1.357288e+00
  2.838658e+01    1.340488e+00
  2.840936e+01    1.401523e+00
  2.843214e+01    1.409354e+00
  2.845493e+01    1.329714e+00
  2.847771e+01    1.352803e+00
  2.850049e+01    1.357925e+00
  2.852327e+01    1.320545e+00
  2.854606e+01    1.371649e+00
  2.856884e+01    1.358673e+00
  2.859162e+01    1.310704e+00
  2.861440e+01    1.331590e+00
  2.863719e+01    1.367316e+00
  2.865997e+01    1.335639e+00
  2.868275e+01    1.400914e+00
  2.870554e+01    1.344114e+00
  2.872832e+01    1.358435e+00
  2.875110e+01    1.321913e+00
  2.877388e+01    1.370559e+00
  2.879667e+01    1.342326e+00
  2.881945e+01    1.323681e+00
  2.884223e+01    1.321630e+00
  2.886502e+01    1.347244e+00
  2.888780e+01    1.309961e+00
  2.891058e+01    1.339325e+00
  2.893336e+01    1.331959e+00
  2.895615e+01    1.350220e+00
  2.897893e+01    1.364492e+00
  2.900171e+01    1.322626e+00
  2.902450e+01    1.317586e+00
  2.904728e+01    1.280813e+00
  2.907006e+01    1.371482e+00
  2.909284e+01    1.283074e+00
  2.911563e+01    1.308805e+00
  2.913841e+01    1.363082e+00
  2.916119e+01    1.343300e+00
  2.918397e+01    1.347965e+00
  2.920676e+01    1.367105e+00
  2.922954e+01    1.376350e+00
  2.925232e+01    1.297982e+00
  2.927511e+01    1.319429e+00
  2.929789e+01    1.357644e+00
  2.932067e+01    1.355888e+00
  2.934345e+01    1.349516e+00
  2.936624e+01    1.352960e+00
  2.938902e+01    1.370812e+00
  2.941180e+01    1.354058e+00
  2.943459e+01    1.383125e+00
  2.945737e+01    1.315915e+00
  2.948015e+01    1.337615e+00
  2.950293e+01    1.349433e+00
  2.952572e+01    1.314344e+00
  2.954850e+01    1.315157e+00
  2.957128e+01    1.356528e+00
  2.959407e+01    1.349597e+00
  2.961685e+01    1.326760e+00
  2.963963e+01    1.338791e+00
  2.966241e+01    1.362808e+00
  2.968520e+01    1.295550e+00
  2.970798e+01    1.391321e+00
  2.973076e+01    1.265914e+00
  2.975354e+01    1.259049e+00
  2.977633e+01    1.278888e+00
  2.979911e+01    1.268036e+00
  2.982189e+01    1.299873e+00
  2.984468e+01    1.303608e+00
  2.986746e+01    1.241879e+00
  2.989024e+01    1.248822e+00
  2.991302e+01    1.263048e+00
  2.993581e+01    1.307659e+00
  2.995859e+01    1.302422e+00
  2.998137e+01    1.334546e+00
  3.000416e+01    1.346493e+00
  3.002694e+01    1.281090e+00
  3.004972e+01    1.260255e+00
  3.007250e+01    1.269992e+00
  3.009529e+01    1.331750e+00
  3.011807e+01    1.287070e+00
  3.014085e+01    1.265592e+00
  3.016363e+01    1.253256e+00
  3.018642e+01    1.232781e+00
  3.020920e+01    1.329601e+00
  3.023198e+01    1.264074e+00
  3.025477e+01    1.231037e+00
  3.027755e+01    1.218403e+00
  3.030033e+01    1.215896e+00
  3.032311e+01    1.244568e+00
  3.034590e+01    1.319262e+00
  3.036868e+01    1.246859e+00
  3.039146e+01    1.349425e+00
  3.041425e+01    1.249848e+00
  3.043703e+01    1.261164e+00
  3.045981e+01    1.286630e+00
  3.048259e+01    1.199605e+00
  3.050538e+01    1.265693e+00
  3.052816e+01    1.296651e+00
  3.055094e+01    1.250548e+00
  3.057373e+01    1.222547e+00
  3.059651e+01    1.275247e+00
  3.061929e+01    1.236326e+00
  3.064207e+01    1.251656e+00
  3.066486e+01    1.279189e+00
  3.068764e+01    1.302033e+00
  3.071042e+01    1.193405e+00
  3.073320e+01    1.303624e+00
  3.075599e+01    1.258838e+00
  3.077877e+01    1.218971e+00
  3.080155e+01    1.241459e+00
  3.082434e+01    1.182551e+00
  3.084712e+01    1.265280e+00
  3.086990e+01    1.236900e+00
  3.089268e+01    1.146450e+00
  3.091547e+01    1.220273e+00
  3.093825e+01    1.207556e+00
  3.096103e+01    1.203902e+00
  3.098382e+01    1.170658e+00
  3.100660e+01    1.225030e+00
  3.102938e+01    1.227837e+00
  3.105216e+01    1.182345e+00
  3.107495e+01    1.260613e+00
  3.109773e+01    1.198940e+00
  3.112051e+01    1.208716e+00
  3.114330e+01    1.294466e+00
  3.116608e+01    1.271065e+00
  3.118886e+01    1.235010e+00
  3.121164e+01    1.263844e+00
  3.123443e+01    1.201724e+00
  3.125721e+01    1.217448e+00
  3.127999e+01    1.333097e+00
  3.130277e+01    1.261976e+00
  3.132556e+01    1.246811e+00
  3.134834e+01    1.278765e+00
  3.137112e+01    1.292131e+00
  3.139391e+01    1.183885e+00
  3.141669e+01    1.166751e+00
  3.143947e+01    1.224498e+00
  3.146225e+01    1.172753e+00
  3.148504e+01    1.232731e+00
  3.150782e+01    1.301381e+00
  3.153060e+01    1.260355e+00
  3.155339e+01    1.260576e+00
  3.157617e+01    1.150279e+00
  3.159895e+01    1.251005e+00
  3.162173e+01    1.152307e+00
  3.164452e+01    1.184469e+00
  3.166730e+01    1.129779e+00
  3.169008e+01    1.232978e+00
  3.171286e+01    1.170123e+00
  3.173565e+01    1.200647e+00
  3.175843e+01    1.266728e+00
  3.178121e+01    1.174407e+00
  3.180400e+01    1.232583e+00
  3.182678e+01    1.228261e+00
  3.184956e+01    1.138590e+00
  3.187234e+01    1.193066e+00
  3.189513e+01    1.135746e+00
  3.191791e+01    1.149431e+00
  3.194069e+01    1.163465e+00
  3.196348e+01    1.183981e+00
  3.198626e+01    1.213088e+00
  3.200904e+01    1.190397e+00
  3.203182e+01    1.152643e+00
  3.205461e+01    1.196498e+00
  3.207739e+01    1.245617e+00
  3.210017e+01    1.210726e+00
  3.212296e+01    1.151957e+00
  3.214574e+01    1.157500e+00
  3.216852e+01    1.137038e+00
  3.219130e+01    1.196491e+00
  3.221409e+01    1.271824e+00
  3.223687e+01    1.214154e+00
  3.225965e+01    1.159589e+00
  3.228243e+01    1.258921e+00
  3.230522e+01    1.209684e+00
  3.232800e+01    1.295902e+00
  3.235078e+01    1.129351e+00
  3.237357e+01    1.133738e+00
  3.239635e+01    1.180356e+00
  3.241913e+01    1.300497e+00
  3.244191e+01    1.186621e+00
  3.246470e+01    1.256041e+00
  3.248748e+01    1.247642e+00
  3.251026e+01    1.171464e+00
  3.253305e+01    1.193256e+00
  3.255583e+01    1.218269e+00
  3.257861e+01    1.191977e+00
  3.260139e+01    1.210889e+00
  3.262418e+01    1.156525e+00
  3.264696e+01    1.154321e+00
  3.266974e+01    1.251672e+00
  3.269253e+01    1.303180e+00
  3.271531e+01    1.154474e+00
  3.273809e+01    1.304806e+00
  3.276087e+01    1.275759e+00
  3.278366e+01    1.193347e+00
  3.280644e+01    1.151839e+00
  3.282922e+01    1.350586e+00
  3.285200e+01    1.226074e+00
  3.287479e+01    1.382298e+00
  3.289757e+01    1.228801e+00
  3.292035e+01    1.228378e+00
  3.294314e+01    1.211793e+00
  3.296592e+01    1.137189e+00
  3.298870e+01    1.146106e+00
  3.301148e+01    1.347260e+00
  3.303427e+01    1.153488e+00
  3.305705e+01    1.205557e+00
  3.307983e+01    1.228092e+00
  3.310262e+01    1.393857e+00
  3.312540e+01    1.457585e+00
  3.314818e+01    1.156808e+00
  3.317096e+01    1.219183e+00
  3.319375e+01    1.305913e+00
  3.321653e+01    1.328203e+00
  3.323931e+01    1.368369e+00
  3.326209e+01    9.720277e-01
  3.328488e+01    1.177147e+00
  3.330766e+01    1.284780e+00
  3.333044e+01    1.489315e+00
  3.335323e+01    1.525386e+00
  3.337601e+01    1.383284e+00
  3.339879e+01    9.825816e-01
  3.342157e+01    1.525375e+00
  3.344436e+01    1.605563e+00
  3.346714e+01    1.387148e+00
  3.348992e+01    1.093649e+00
  3.351271e+01    1.369093e+00
  3.353549e+01    0.000000e+00
  3.355827e+01    0.000000e+00
  3.358105e+01    0.000000e+00
  3.360384e+01    0.000000e+00
  3.362662e+01    0.000000e+00
  3.364940e+01    0.000000e+00
  3.367219e+01    0.000000e+00
  3.369497e+01    0.000000e+00
  3.371775e+01    0.000000e+00
