# == pyFAI calibration ==
# Distance Sample to Detector: 0.21311058206280517 m
# PONI: 2.037e-01, 1.993e-01 m
# Rotations: -0.005459 0.000134 0.000000 rad
# 
# == Fit2d calibration ==
# Distance Sample-beamCenter: 213.114 mm
# Center: x=1002.134, y=1018.730 pix
# Tilt: 0.313 deg  TiltPlanRot: 1.411 deg
# 
# Detector Perkin detector	 PixelSize= 2.000e-04, 2.000e-04 m
#    Detector has a mask: False 
#    Detector has a dark current: False 
#    detector has a flat field: False 
# 
# Wavelength: 1.675e-11 m
# Mask applied: provided
# Dark current applied: False
# Flat field applied: False
# Polarization factor: None
# Normalization factor: 1.0
# --> data/chi_bkgsub_true/C_Tatania2-38.5-average.chi
#        q_A^-1             I 
  2.199784e-02    9.274291e-01
  4.478064e-02    1.546459e+00
  6.756343e-02    1.813313e+00
  9.034623e-02    1.741924e+00
  1.131290e-01    1.854691e+00
  1.359118e-01    1.592417e+00
  1.586946e-01    2.086987e+00
  1.814774e-01    2.267216e+00
  2.042602e-01    1.858879e+00
  2.270430e-01    2.251083e+00
  2.498258e-01    3.382272e+00
  2.726086e-01    7.291420e+00
  2.953914e-01    2.369238e+01
  3.181742e-01    5.616096e+01
  3.409570e-01    7.868201e+01
  3.637398e-01    5.966563e+01
  3.865226e-01    4.483059e+01
  4.093054e-01    4.459034e+01
  4.320881e-01    3.492976e+01
  4.548709e-01    2.062785e+01
  4.776537e-01    1.222129e+01
  5.004365e-01    9.750138e+00
  5.232193e-01    9.337021e+00
  5.460021e-01    1.055081e+01
  5.687849e-01    1.286951e+01
  5.915677e-01    1.467393e+01
  6.143505e-01    1.553138e+01
  6.371333e-01    1.534981e+01
  6.599161e-01    1.558554e+01
  6.826989e-01    1.822243e+01
  7.054817e-01    1.993944e+01
  7.282645e-01    2.023049e+01
  7.510473e-01    2.079406e+01
  7.738301e-01    2.263288e+01
  7.966129e-01    2.314720e+01
  8.193956e-01    2.407754e+01
  8.421784e-01    2.479161e+01
  8.649612e-01    2.483367e+01
  8.877440e-01    2.599915e+01
  9.105268e-01    2.747580e+01
  9.333096e-01    2.836493e+01
  9.560924e-01    2.878468e+01
  9.788752e-01    2.962565e+01
  1.001658e+00    3.125396e+01
  1.024441e+00    3.253010e+01
  1.047224e+00    3.344947e+01
  1.070006e+00    3.425202e+01
  1.092789e+00    3.555876e+01
  1.115572e+00    3.703793e+01
  1.138355e+00    3.905568e+01
  1.161138e+00    4.098252e+01
  1.183920e+00    4.346736e+01
  1.206703e+00    4.625205e+01
  1.229486e+00    4.890259e+01
  1.252269e+00    5.165682e+01
  1.275052e+00    5.443727e+01
  1.297834e+00    5.673074e+01
  1.320617e+00    5.902232e+01
  1.343400e+00    6.281055e+01
  1.366183e+00    6.582865e+01
  1.388966e+00    6.834595e+01
  1.411748e+00    7.078320e+01
  1.434531e+00    7.302060e+01
  1.457314e+00    7.459406e+01
  1.480097e+00    7.642699e+01
  1.502879e+00    7.896008e+01
  1.525662e+00    8.177297e+01
  1.548445e+00    8.326632e+01
  1.571228e+00    8.441309e+01
  1.594011e+00    8.553569e+01
  1.616793e+00    8.706081e+01
  1.639576e+00    8.837644e+01
  1.662359e+00    9.059904e+01
  1.685142e+00    9.485339e+01
  1.707925e+00    1.005241e+02
  1.730707e+00    1.084376e+02
  1.753490e+00    1.173994e+02
  1.776273e+00    1.211694e+02
  1.799056e+00    1.168653e+02
  1.821839e+00    1.073546e+02
  1.844621e+00    9.606038e+01
  1.867404e+00    8.765785e+01
  1.890187e+00    8.181281e+01
  1.912970e+00    7.713442e+01
  1.935753e+00    7.388622e+01
  1.958535e+00    7.195873e+01
  1.981318e+00    7.037614e+01
  2.004101e+00    6.874954e+01
  2.026884e+00    6.753112e+01
  2.049667e+00    6.555099e+01
  2.072449e+00    6.420296e+01
  2.095232e+00    6.271077e+01
  2.118015e+00    6.089638e+01
  2.140798e+00    5.906052e+01
  2.163581e+00    5.715467e+01
  2.186363e+00    5.532633e+01
  2.209146e+00    5.456328e+01
  2.231929e+00    5.384934e+01
  2.254712e+00    5.291278e+01
  2.277494e+00    5.169629e+01
  2.300277e+00    4.990635e+01
  2.323060e+00    4.819561e+01
  2.345843e+00    4.645698e+01
  2.368626e+00    4.517102e+01
  2.391408e+00    4.366202e+01
  2.414191e+00    4.224278e+01
  2.436974e+00    4.077861e+01
  2.459757e+00    3.968210e+01
  2.482540e+00    3.834592e+01
  2.505322e+00    3.725416e+01
  2.528105e+00    3.700170e+01
  2.550888e+00    3.742706e+01
  2.573671e+00    3.847437e+01
  2.596454e+00    3.997939e+01
  2.619236e+00    4.188711e+01
  2.642019e+00    4.227480e+01
  2.664802e+00    4.098713e+01
  2.687585e+00    3.906466e+01
  2.710368e+00    3.717590e+01
  2.733150e+00    3.603892e+01
  2.755933e+00    3.506909e+01
  2.778716e+00    3.422135e+01
  2.801499e+00    3.376080e+01
  2.824282e+00    3.369117e+01
  2.847064e+00    3.382233e+01
  2.869847e+00    3.388271e+01
  2.892630e+00    3.362464e+01
  2.915413e+00    3.299352e+01
  2.938196e+00    3.254697e+01
  2.960978e+00    3.222199e+01
  2.983761e+00    3.152413e+01
  3.006544e+00    3.038686e+01
  3.029327e+00    2.953430e+01
  3.052110e+00    2.944928e+01
  3.074892e+00    3.000091e+01
  3.097675e+00    3.087554e+01
  3.120458e+00    3.187140e+01
  3.143241e+00    3.228807e+01
  3.166023e+00    3.236608e+01
  3.188806e+00    3.235180e+01
  3.211589e+00    3.361590e+01
  3.234372e+00    3.602876e+01
  3.257155e+00    3.898922e+01
  3.279937e+00    4.203411e+01
  3.302720e+00    4.344617e+01
  3.325503e+00    4.213511e+01
  3.348286e+00    3.870721e+01
  3.371069e+00    3.530251e+01
  3.393851e+00    3.319027e+01
  3.416634e+00    3.206874e+01
  3.439417e+00    3.168636e+01
  3.462200e+00    3.152350e+01
  3.484983e+00    3.119183e+01
  3.507765e+00    3.084347e+01
  3.530548e+00    3.082039e+01
  3.553331e+00    3.131129e+01
  3.576114e+00    3.247850e+01
  3.598897e+00    3.401495e+01
  3.621679e+00    3.585619e+01
  3.644462e+00    3.811804e+01
  3.667245e+00    4.064569e+01
  3.690028e+00    4.307508e+01
  3.712811e+00    4.447224e+01
  3.735593e+00    4.454644e+01
  3.758376e+00    4.353638e+01
  3.781159e+00    4.171952e+01
  3.803942e+00    3.958895e+01
  3.826725e+00    3.803076e+01
  3.849507e+00    3.712943e+01
  3.872290e+00    3.656565e+01
  3.895073e+00    3.601451e+01
  3.917856e+00    3.569614e+01
  3.940638e+00    3.538487e+01
  3.963421e+00    3.492559e+01
  3.986204e+00    3.487794e+01
  4.008987e+00    3.486331e+01
  4.031770e+00    3.547451e+01
  4.054552e+00    3.607032e+01
  4.077335e+00    3.641106e+01
  4.100118e+00    3.686499e+01
  4.122901e+00    3.765030e+01
  4.145684e+00    3.850586e+01
  4.168466e+00    3.958439e+01
  4.191249e+00    4.048808e+01
  4.214032e+00    4.148095e+01
  4.236815e+00    4.161093e+01
  4.259598e+00    4.058255e+01
  4.282380e+00    3.899947e+01
  4.305163e+00    3.743292e+01
  4.327946e+00    3.612270e+01
  4.350729e+00    3.478951e+01
  4.373512e+00    3.378194e+01
  4.396294e+00    3.324139e+01
  4.419077e+00    3.319337e+01
  4.441860e+00    3.314136e+01
  4.464643e+00    3.290063e+01
  4.487426e+00    3.258198e+01
  4.510208e+00    3.219567e+01
  4.532991e+00    3.216036e+01
  4.555774e+00    3.265877e+01
  4.578557e+00    3.370279e+01
  4.601340e+00    3.449568e+01
  4.624122e+00    3.449882e+01
  4.646905e+00    3.435592e+01
  4.669688e+00    3.393894e+01
  4.692471e+00    3.326065e+01
  4.715253e+00    3.172034e+01
  4.738036e+00    3.007753e+01
  4.760819e+00    2.894952e+01
  4.783602e+00    2.847641e+01
  4.806385e+00    2.833778e+01
  4.829167e+00    2.835322e+01
  4.851950e+00    2.850355e+01
  4.874733e+00    2.904190e+01
  4.897516e+00    2.959006e+01
  4.920299e+00    3.033442e+01
  4.943081e+00    3.102604e+01
  4.965864e+00    3.100888e+01
  4.988647e+00    3.044984e+01
  5.011430e+00    2.957936e+01
  5.034213e+00    2.872462e+01
  5.056995e+00    2.806240e+01
  5.079778e+00    2.733478e+01
  5.102561e+00    2.646385e+01
  5.125344e+00    2.587720e+01
  5.148127e+00    2.542838e+01
  5.170909e+00    2.475378e+01
  5.193692e+00    2.436012e+01
  5.216475e+00    2.412361e+01
  5.239258e+00    2.412958e+01
  5.262041e+00    2.423074e+01
  5.284823e+00    2.421754e+01
  5.307606e+00    2.435808e+01
  5.330389e+00    2.464902e+01
  5.353172e+00    2.512559e+01
  5.375955e+00    2.492061e+01
  5.398737e+00    2.433678e+01
  5.421520e+00    2.339947e+01
  5.444303e+00    2.215244e+01
  5.467086e+00    2.109065e+01
  5.489869e+00    2.040869e+01
  5.512651e+00    1.975369e+01
  5.535434e+00    1.931687e+01
  5.558217e+00    1.872622e+01
  5.581000e+00    1.809961e+01
  5.603782e+00    1.755756e+01
  5.626565e+00    1.736934e+01
  5.649348e+00    1.733450e+01
  5.672131e+00    1.720826e+01
  5.694914e+00    1.727414e+01
  5.717696e+00    1.721839e+01
  5.740479e+00    1.712788e+01
  5.763262e+00    1.682901e+01
  5.786045e+00    1.648124e+01
  5.808828e+00    1.604784e+01
  5.831610e+00    1.581417e+01
  5.854393e+00    1.631617e+01
  5.877176e+00    1.739496e+01
  5.899959e+00    1.812331e+01
  5.922742e+00    1.858040e+01
  5.945524e+00    1.889524e+01
  5.968307e+00    1.921539e+01
  5.991090e+00    1.907098e+01
  6.013873e+00    1.864234e+01
  6.036656e+00    1.816201e+01
  6.059438e+00    1.786433e+01
  6.082221e+00    1.753699e+01
  6.105004e+00    1.748204e+01
  6.127787e+00    1.755868e+01
  6.150570e+00    1.770958e+01
  6.173352e+00    1.767109e+01
  6.196135e+00    1.762624e+01
  6.218918e+00    1.747414e+01
  6.241701e+00    1.730123e+01
  6.264484e+00    1.684378e+01
  6.287266e+00    1.640497e+01
  6.310049e+00    1.623497e+01
  6.332832e+00    1.615469e+01
  6.355615e+00    1.610513e+01
  6.378397e+00    1.585440e+01
  6.401180e+00    1.569830e+01
  6.423963e+00    1.544377e+01
  6.446746e+00    1.536246e+01
  6.469529e+00    1.555131e+01
  6.492311e+00    1.571347e+01
  6.515094e+00    1.590203e+01
  6.537877e+00    1.621275e+01
  6.560660e+00    1.621005e+01
  6.583443e+00    1.619419e+01
  6.606225e+00    1.618931e+01
  6.629008e+00    1.602534e+01
  6.651791e+00    1.586938e+01
  6.674574e+00    1.560037e+01
  6.697357e+00    1.528265e+01
  6.720139e+00    1.503633e+01
  6.742922e+00    1.504008e+01
  6.765705e+00    1.516581e+01
  6.788488e+00    1.550978e+01
  6.811271e+00    1.581558e+01
  6.834053e+00    1.594677e+01
  6.856836e+00    1.585774e+01
  6.879619e+00    1.554223e+01
  6.902402e+00    1.517486e+01
  6.925185e+00    1.509385e+01
  6.947967e+00    1.534437e+01
  6.970750e+00    1.566198e+01
  6.993533e+00    1.602094e+01
  7.016316e+00    1.612805e+01
  7.039099e+00    1.570994e+01
  7.061881e+00    1.523173e+01
  7.084664e+00    1.497900e+01
  7.107447e+00    1.485692e+01
  7.130230e+00    1.473001e+01
  7.153013e+00    1.465744e+01
  7.175795e+00    1.444791e+01
  7.198578e+00    1.421199e+01
  7.221361e+00    1.384292e+01
  7.244144e+00    1.362818e+01
  7.266926e+00    1.361807e+01
  7.289709e+00    1.373223e+01
  7.312492e+00    1.380904e+01
  7.335275e+00    1.402351e+01
  7.358058e+00    1.430488e+01
  7.380840e+00    1.449672e+01
  7.403623e+00    1.466987e+01
  7.426406e+00    1.472416e+01
  7.449189e+00    1.480031e+01
  7.471972e+00    1.482411e+01
  7.494754e+00    1.474285e+01
  7.517537e+00    1.471924e+01
  7.540320e+00    1.474941e+01
  7.563103e+00    1.463382e+01
  7.585886e+00    1.441418e+01
  7.608668e+00    1.436675e+01
  7.631451e+00    1.432754e+01
  7.654234e+00    1.442634e+01
  7.677017e+00    1.452353e+01
  7.699800e+00    1.465814e+01
  7.722582e+00    1.485860e+01
  7.745365e+00    1.481614e+01
  7.768148e+00    1.494625e+01
  7.790931e+00    1.504947e+01
  7.813714e+00    1.486689e+01
  7.836496e+00    1.474302e+01
  7.859279e+00    1.479628e+01
  7.882062e+00    1.480237e+01
  7.904845e+00    1.461826e+01
  7.927628e+00    1.434737e+01
  7.950410e+00    1.406116e+01
  7.973193e+00    1.393997e+01
  7.995976e+00    1.376417e+01
  8.018759e+00    1.362349e+01
  8.041541e+00    1.368702e+01
  8.064324e+00    1.364358e+01
  8.087107e+00    1.350057e+01
  8.109890e+00    1.345233e+01
  8.132673e+00    1.332982e+01
  8.155455e+00    1.315065e+01
  8.178238e+00    1.306793e+01
  8.201021e+00    1.313772e+01
  8.223804e+00    1.302427e+01
  8.246587e+00    1.313078e+01
  8.269369e+00    1.320870e+01
  8.292152e+00    1.316550e+01
  8.314935e+00    1.334248e+01
  8.337718e+00    1.338341e+01
  8.360501e+00    1.355956e+01
  8.383283e+00    1.375134e+01
  8.406066e+00    1.395641e+01
  8.428849e+00    1.400527e+01
  8.451632e+00    1.382620e+01
  8.474415e+00    1.343015e+01
  8.497197e+00    1.310309e+01
  8.519980e+00    1.290369e+01
  8.542763e+00    1.281989e+01
  8.565546e+00    1.262097e+01
  8.588329e+00    1.241774e+01
  8.611111e+00    1.243778e+01
  8.633894e+00    1.240105e+01
  8.656677e+00    1.236258e+01
  8.679460e+00    1.220179e+01
  8.702243e+00    1.206565e+01
  8.725025e+00    1.199452e+01
  8.747808e+00    1.213993e+01
  8.770591e+00    1.212262e+01
  8.793374e+00    1.178961e+01
  8.816156e+00    1.179768e+01
  8.838939e+00    1.184000e+01
  8.861722e+00    1.200247e+01
  8.884505e+00    1.195821e+01
  8.907288e+00    1.187628e+01
  8.930070e+00    1.181872e+01
  8.952853e+00    1.187833e+01
  8.975636e+00    1.196841e+01
  8.998419e+00    1.179699e+01
  9.021202e+00    1.181758e+01
  9.043984e+00    1.167090e+01
  9.066767e+00    1.155976e+01
  9.089550e+00    1.142121e+01
  9.112333e+00    1.116836e+01
  9.135116e+00    1.100969e+01
  9.157898e+00    1.085759e+01
  9.180681e+00    1.083662e+01
  9.203464e+00    1.066363e+01
  9.226247e+00    1.068661e+01
  9.249030e+00    1.066399e+01
  9.271812e+00    1.060583e+01
  9.294595e+00    1.060530e+01
  9.317378e+00    1.077097e+01
  9.340161e+00    1.070933e+01
  9.362944e+00    1.076986e+01
  9.385726e+00    1.087907e+01
  9.408509e+00    1.076118e+01
  9.431292e+00    1.065438e+01
  9.454075e+00    1.055102e+01
  9.476858e+00    1.064122e+01
  9.499640e+00    1.056827e+01
  9.522423e+00    1.052293e+01
  9.545206e+00    1.039753e+01
  9.567989e+00    1.021578e+01
  9.590772e+00    1.019485e+01
  9.613554e+00    1.013237e+01
  9.636337e+00    1.008283e+01
  9.659120e+00    9.971362e+00
  9.681903e+00    9.923657e+00
  9.704685e+00    9.866210e+00
  9.727468e+00    9.906034e+00
  9.750251e+00    9.888891e+00
  9.773034e+00    9.693886e+00
  9.795817e+00    9.640226e+00
  9.818599e+00    9.591184e+00
  9.841382e+00    9.666957e+00
  9.864165e+00    9.654815e+00
  9.886948e+00    9.597755e+00
  9.909731e+00    9.729160e+00
  9.932513e+00    9.729346e+00
  9.955296e+00    9.643863e+00
  9.978079e+00    9.510785e+00
  1.000086e+01    9.489838e+00
  1.002364e+01    9.550524e+00
  1.004643e+01    9.677854e+00
  1.006921e+01    9.789762e+00
  1.009199e+01    9.797421e+00
  1.011478e+01    9.651474e+00
  1.013756e+01    9.604629e+00
  1.016034e+01    9.546746e+00
  1.018312e+01    9.567383e+00
  1.020591e+01    9.580374e+00
  1.022869e+01    9.640752e+00
  1.025147e+01    9.704329e+00
  1.027426e+01    9.650448e+00
  1.029704e+01    9.521068e+00
  1.031982e+01    9.595429e+00
  1.034260e+01    9.561583e+00
  1.036539e+01    9.620137e+00
  1.038817e+01    9.597179e+00
  1.041095e+01    9.650661e+00
  1.043373e+01    9.688844e+00
  1.045652e+01    9.789187e+00
  1.047930e+01    9.690473e+00
  1.050208e+01    9.668088e+00
  1.052487e+01    9.612366e+00
  1.054765e+01    9.666712e+00
  1.057043e+01    9.743352e+00
  1.059321e+01    9.912186e+00
  1.061600e+01    9.934073e+00
  1.063878e+01    1.000072e+01
  1.066156e+01    9.994714e+00
  1.068435e+01    9.946888e+00
  1.070713e+01    9.846314e+00
  1.072991e+01    9.634995e+00
  1.075269e+01    9.674406e+00
  1.077548e+01    9.687037e+00
  1.079826e+01    9.595716e+00
  1.082104e+01    9.439969e+00
  1.084383e+01    9.441381e+00
  1.086661e+01    9.429704e+00
  1.088939e+01    9.325071e+00
  1.091217e+01    9.246324e+00
  1.093496e+01    9.084588e+00
  1.095774e+01    9.079789e+00
  1.098052e+01    9.050082e+00
  1.100330e+01    9.133067e+00
  1.102609e+01    9.281311e+00
  1.104887e+01    9.124379e+00
  1.107165e+01    9.120684e+00
  1.109444e+01    9.144216e+00
  1.111722e+01    8.980626e+00
  1.114000e+01    8.941095e+00
  1.116278e+01    8.957296e+00
  1.118557e+01    8.934699e+00
  1.120835e+01    8.759440e+00
  1.123113e+01    8.778784e+00
  1.125392e+01    8.719254e+00
  1.127670e+01    8.723801e+00
  1.129948e+01    8.711498e+00
  1.132226e+01    8.657343e+00
  1.134505e+01    8.668015e+00
  1.136783e+01    8.636173e+00
  1.139061e+01    8.649357e+00
  1.141340e+01    8.692571e+00
  1.143618e+01    8.725972e+00
  1.145896e+01    8.713156e+00
  1.148174e+01    8.635427e+00
  1.150453e+01    8.671356e+00
  1.152731e+01    8.787042e+00
  1.155009e+01    8.906358e+00
  1.157287e+01    8.978029e+00
  1.159566e+01    8.965135e+00
  1.161844e+01    9.025686e+00
  1.164122e+01    8.960069e+00
  1.166401e+01    9.041952e+00
  1.168679e+01    9.051989e+00
  1.170957e+01    8.933292e+00
  1.173235e+01    8.970867e+00
  1.175514e+01    9.008924e+00
  1.177792e+01    8.900696e+00
  1.180070e+01    8.850897e+00
  1.182349e+01    8.901360e+00
  1.184627e+01    8.790948e+00
  1.186905e+01    8.750881e+00
  1.189183e+01    8.852205e+00
  1.191462e+01    8.863641e+00
  1.193740e+01    8.898110e+00
  1.196018e+01    8.865621e+00
  1.198296e+01    8.800550e+00
  1.200575e+01    8.768895e+00
  1.202853e+01    8.788527e+00
  1.205131e+01    8.779997e+00
  1.207410e+01    8.832712e+00
  1.209688e+01    8.785614e+00
  1.211966e+01    8.767426e+00
  1.214244e+01    8.730473e+00
  1.216523e+01    8.641146e+00
  1.218801e+01    8.699677e+00
  1.221079e+01    8.718277e+00
  1.223358e+01    8.694399e+00
  1.225636e+01    8.639940e+00
  1.227914e+01    8.531529e+00
  1.230192e+01    8.608788e+00
  1.232471e+01    8.676856e+00
  1.234749e+01    8.632408e+00
  1.237027e+01    8.628474e+00
  1.239306e+01    8.609780e+00
  1.241584e+01    8.590866e+00
  1.243862e+01    8.524928e+00
  1.246140e+01    8.513500e+00
  1.248419e+01    8.575784e+00
  1.250697e+01    8.541786e+00
  1.252975e+01    8.487311e+00
  1.255253e+01    8.460160e+00
  1.257532e+01    8.393327e+00
  1.259810e+01    8.290026e+00
  1.262088e+01    8.337317e+00
  1.264367e+01    8.322283e+00
  1.266645e+01    8.210375e+00
  1.268923e+01    7.993855e+00
  1.271201e+01    7.867546e+00
  1.273480e+01    7.825308e+00
  1.275758e+01    7.907140e+00
  1.278036e+01    7.885399e+00
  1.280315e+01    7.884260e+00
  1.282593e+01    7.955632e+00
  1.284871e+01    7.813641e+00
  1.287149e+01    7.820179e+00
  1.289428e+01    7.814736e+00
  1.291706e+01    7.831881e+00
  1.293984e+01    7.862444e+00
  1.296263e+01    7.875478e+00
  1.298541e+01    7.776111e+00
  1.300819e+01    7.704772e+00
  1.303097e+01    7.709863e+00
  1.305376e+01    7.663662e+00
  1.307654e+01    7.655828e+00
  1.309932e+01    7.691746e+00
  1.312210e+01    7.626185e+00
  1.314489e+01    7.629565e+00
  1.316767e+01    7.571936e+00
  1.319045e+01    7.497812e+00
  1.321324e+01    7.617190e+00
  1.323602e+01    7.725472e+00
  1.325880e+01    7.756470e+00
  1.328158e+01    7.665992e+00
  1.330437e+01    7.676637e+00
  1.332715e+01    7.740573e+00
  1.334993e+01    7.727629e+00
  1.337272e+01    7.630894e+00
  1.339550e+01    7.573959e+00
  1.341828e+01    7.561876e+00
  1.344106e+01    7.591706e+00
  1.346385e+01    7.548106e+00
  1.348663e+01    7.493587e+00
  1.350941e+01    7.369376e+00
  1.353219e+01    7.340238e+00
  1.355498e+01    7.402295e+00
  1.357776e+01    7.324642e+00
  1.360054e+01    7.356718e+00
  1.362333e+01    7.385270e+00
  1.364611e+01    7.347582e+00
  1.366889e+01    7.382130e+00
  1.369167e+01    7.343064e+00
  1.371446e+01    7.339688e+00
  1.373724e+01    7.329341e+00
  1.376002e+01    7.347438e+00
  1.378281e+01    7.323032e+00
  1.380559e+01    7.275851e+00
  1.382837e+01    7.247779e+00
  1.385115e+01    7.298647e+00
  1.387394e+01    7.227742e+00
  1.389672e+01    7.220630e+00
  1.391950e+01    7.255764e+00
  1.394229e+01    7.248564e+00
  1.396507e+01    7.251323e+00
  1.398785e+01    7.237273e+00
  1.401063e+01    7.256363e+00
  1.403342e+01    7.198878e+00
  1.405620e+01    7.231635e+00
  1.407898e+01    7.179973e+00
  1.410176e+01    7.131676e+00
  1.412455e+01    7.223063e+00
  1.414733e+01    7.278014e+00
  1.417011e+01    7.138228e+00
  1.419290e+01    7.222219e+00
  1.421568e+01    7.235124e+00
  1.423846e+01    7.261674e+00
  1.426124e+01    7.138944e+00
  1.428403e+01    7.030362e+00
  1.430681e+01    7.135437e+00
  1.432959e+01    7.161976e+00
  1.435238e+01    7.143056e+00
  1.437516e+01    7.127965e+00
  1.439794e+01    7.036005e+00
  1.442072e+01    7.001698e+00
  1.444351e+01    7.158339e+00
  1.446629e+01    7.161901e+00
  1.448907e+01    7.095820e+00
  1.451186e+01    7.049852e+00
  1.453464e+01    6.946979e+00
  1.455742e+01    6.891669e+00
  1.458020e+01    6.804658e+00
  1.460299e+01    6.903859e+00
  1.462577e+01    6.976132e+00
  1.464855e+01    6.830720e+00
  1.467133e+01    6.871140e+00
  1.469412e+01    6.922312e+00
  1.471690e+01    6.933173e+00
  1.473968e+01    6.942964e+00
  1.476247e+01    6.852429e+00
  1.478525e+01    6.912844e+00
  1.480803e+01    7.013455e+00
  1.483081e+01    6.937090e+00
  1.485360e+01    6.901417e+00
  1.487638e+01    6.902543e+00
  1.489916e+01    6.897993e+00
  1.492195e+01    6.821098e+00
  1.494473e+01    6.809719e+00
  1.496751e+01    6.860013e+00
  1.499029e+01    6.858985e+00
  1.501308e+01    6.952172e+00
  1.503586e+01    6.927131e+00
  1.505864e+01    6.849689e+00
  1.508142e+01    6.799755e+00
  1.510421e+01    6.694463e+00
  1.512699e+01    6.763175e+00
  1.514977e+01    6.770441e+00
  1.517256e+01    6.745634e+00
  1.519534e+01    6.767919e+00
  1.521812e+01    6.710848e+00
  1.524090e+01    6.591532e+00
  1.526369e+01    6.596958e+00
  1.528647e+01    6.721248e+00
  1.530925e+01    6.665924e+00
  1.533204e+01    6.602203e+00
  1.535482e+01    6.628266e+00
  1.537760e+01    6.671027e+00
  1.540038e+01    6.593115e+00
  1.542317e+01    6.526498e+00
  1.544595e+01    6.563187e+00
  1.546873e+01    6.545907e+00
  1.549152e+01    6.506368e+00
  1.551430e+01    6.577409e+00
  1.553708e+01    6.581644e+00
  1.555986e+01    6.597030e+00
  1.558265e+01    6.492027e+00
  1.560543e+01    6.447487e+00
  1.562821e+01    6.486331e+00
  1.565099e+01    6.534337e+00
  1.567378e+01    6.540169e+00
  1.569656e+01    6.528058e+00
  1.571934e+01    6.503940e+00
  1.574213e+01    6.540219e+00
  1.576491e+01    6.503719e+00
  1.578769e+01    6.394865e+00
  1.581047e+01    6.386009e+00
  1.583326e+01    6.414117e+00
  1.585604e+01    6.361199e+00
  1.587882e+01    6.354277e+00
  1.590161e+01    6.406992e+00
  1.592439e+01    6.405659e+00
  1.594717e+01    6.495751e+00
  1.596995e+01    6.426224e+00
  1.599274e+01    6.305039e+00
  1.601552e+01    6.331212e+00
  1.603830e+01    6.390320e+00
  1.606109e+01    6.383695e+00
  1.608387e+01    6.348111e+00
  1.610665e+01    6.439014e+00
  1.612943e+01    6.414719e+00
  1.615222e+01    6.393490e+00
  1.617500e+01    6.337149e+00
  1.619778e+01    6.302137e+00
  1.622056e+01    6.308981e+00
  1.624335e+01    6.311150e+00
  1.626613e+01    6.386899e+00
  1.628891e+01    6.448223e+00
  1.631170e+01    6.400470e+00
  1.633448e+01    6.300722e+00
  1.635726e+01    6.314967e+00
  1.638004e+01    6.285927e+00
  1.640283e+01    6.266421e+00
  1.642561e+01    6.255518e+00
  1.644839e+01    6.231678e+00
  1.647118e+01    6.252562e+00
  1.649396e+01    6.152836e+00
  1.651674e+01    6.181828e+00
  1.653952e+01    6.138570e+00
  1.656231e+01    6.266859e+00
  1.658509e+01    6.219540e+00
  1.660787e+01    6.185458e+00
  1.663065e+01    6.172180e+00
  1.665344e+01    6.151617e+00
  1.667622e+01    6.119925e+00
  1.669900e+01    6.153123e+00
  1.672179e+01    6.145064e+00
  1.674457e+01    6.095102e+00
  1.676735e+01    6.161819e+00
  1.679013e+01    6.112512e+00
  1.681292e+01    6.072747e+00
  1.683570e+01    6.017458e+00
  1.685848e+01    6.005706e+00
  1.688127e+01    6.023375e+00
  1.690405e+01    5.942956e+00
  1.692683e+01    5.953217e+00
  1.694961e+01    5.947345e+00
  1.697240e+01    5.948278e+00
  1.699518e+01    5.956478e+00
  1.701796e+01    5.859725e+00
  1.704075e+01    5.830760e+00
  1.706353e+01    5.855045e+00
  1.708631e+01    5.884873e+00
  1.710909e+01    5.892947e+00
  1.713188e+01    5.992787e+00
  1.715466e+01    6.007086e+00
  1.717744e+01    5.850940e+00
  1.720022e+01    5.777826e+00
  1.722301e+01    5.760408e+00
  1.724579e+01    5.832144e+00
  1.726857e+01    5.781837e+00
  1.729136e+01    5.772151e+00
  1.731414e+01    5.789517e+00
  1.733692e+01    5.744740e+00
  1.735970e+01    5.706832e+00
  1.738249e+01    5.624707e+00
  1.740527e+01    5.688382e+00
  1.742805e+01    5.717478e+00
  1.745084e+01    5.763757e+00
  1.747362e+01    5.763856e+00
  1.749640e+01    5.689521e+00
  1.751918e+01    5.746246e+00
  1.754197e+01    5.681495e+00
  1.756475e+01    5.648635e+00
  1.758753e+01    5.584446e+00
  1.761032e+01    5.671293e+00
  1.763310e+01    5.625894e+00
  1.765588e+01    5.671749e+00
  1.767866e+01    5.632620e+00
  1.770145e+01    5.589127e+00
  1.772423e+01    5.524403e+00
  1.774701e+01    5.431670e+00
  1.776979e+01    5.519485e+00
  1.779258e+01    5.518161e+00
  1.781536e+01    5.529696e+00
  1.783814e+01    5.592368e+00
  1.786093e+01    5.505515e+00
  1.788371e+01    5.543644e+00
  1.790649e+01    5.463111e+00
  1.792927e+01    5.514667e+00
  1.795206e+01    5.480062e+00
  1.797484e+01    5.481250e+00
  1.799762e+01    5.516494e+00
  1.802041e+01    5.474065e+00
  1.804319e+01    5.504500e+00
  1.806597e+01    5.565709e+00
  1.808875e+01    5.551479e+00
  1.811154e+01    5.543958e+00
  1.813432e+01    5.518615e+00
  1.815710e+01    5.506200e+00
  1.817989e+01    5.486874e+00
  1.820267e+01    5.488508e+00
  1.822545e+01    5.515090e+00
  1.824823e+01    5.426794e+00
  1.827102e+01    5.439847e+00
  1.829380e+01    5.398771e+00
  1.831658e+01    5.363482e+00
  1.833936e+01    5.348960e+00
  1.836215e+01    5.392194e+00
  1.838493e+01    5.448783e+00
  1.840771e+01    5.446424e+00
  1.843050e+01    5.401376e+00
  1.845328e+01    5.389708e+00
  1.847606e+01    5.392190e+00
  1.849884e+01    5.415686e+00
  1.852163e+01    5.396644e+00
  1.854441e+01    5.367649e+00
  1.856719e+01    5.371881e+00
  1.858998e+01    5.312461e+00
  1.861276e+01    5.288446e+00
  1.863554e+01    5.297850e+00
  1.865832e+01    5.345286e+00
  1.868111e+01    5.377418e+00
  1.870389e+01    5.379654e+00
  1.872667e+01    5.348368e+00
  1.874945e+01    5.352639e+00
  1.877224e+01    5.337905e+00
  1.879502e+01    5.295097e+00
  1.881780e+01    5.297997e+00
  1.884059e+01    5.304560e+00
  1.886337e+01    5.308241e+00
  1.888615e+01    5.232225e+00
  1.890893e+01    5.216098e+00
  1.893172e+01    5.253719e+00
  1.895450e+01    5.215586e+00
  1.897728e+01    5.172811e+00
  1.900007e+01    5.231456e+00
  1.902285e+01    5.250075e+00
  1.904563e+01    5.155455e+00
  1.906841e+01    5.115711e+00
  1.909120e+01    5.165216e+00
  1.911398e+01    5.151594e+00
  1.913676e+01    5.206840e+00
  1.915955e+01    5.217278e+00
  1.918233e+01    5.242754e+00
  1.920511e+01    5.203153e+00
  1.922789e+01    5.161395e+00
  1.925068e+01    5.144216e+00
  1.927346e+01    5.106630e+00
  1.929624e+01    5.146392e+00
  1.931902e+01    5.186299e+00
  1.934181e+01    5.175240e+00
  1.936459e+01    5.130314e+00
  1.938737e+01    5.144393e+00
  1.941016e+01    5.166132e+00
  1.943294e+01    5.103466e+00
  1.945572e+01    5.091914e+00
  1.947850e+01    5.058484e+00
  1.950129e+01    5.053658e+00
  1.952407e+01    5.008160e+00
  1.954685e+01    5.051850e+00
  1.956964e+01    5.093221e+00
  1.959242e+01    5.016166e+00
  1.961520e+01    4.949458e+00
  1.963798e+01    4.958402e+00
  1.966077e+01    4.992371e+00
  1.968355e+01    5.003297e+00
  1.970633e+01    4.962074e+00
  1.972912e+01    4.976863e+00
  1.975190e+01    4.941718e+00
  1.977468e+01    4.958739e+00
  1.979746e+01    4.942895e+00
  1.982025e+01    5.007856e+00
  1.984303e+01    4.970159e+00
  1.986581e+01    4.922925e+00
  1.988859e+01    4.896972e+00
  1.991138e+01    4.873202e+00
  1.993416e+01    4.867591e+00
  1.995694e+01    4.896624e+00
  1.997973e+01    4.811739e+00
  2.000251e+01    4.880273e+00
  2.002529e+01    4.902421e+00
  2.004807e+01    4.915918e+00
  2.007086e+01    4.943717e+00
  2.009364e+01    4.816368e+00
  2.011642e+01    4.873393e+00
  2.013921e+01    4.853859e+00
  2.016199e+01    4.779627e+00
  2.018477e+01    4.800466e+00
  2.020755e+01    4.829902e+00
  2.023034e+01    4.838126e+00
  2.025312e+01    4.788051e+00
  2.027590e+01    4.872173e+00
  2.029868e+01    4.847787e+00
  2.032147e+01    4.814369e+00
  2.034425e+01    4.879755e+00
  2.036703e+01    4.762566e+00
  2.038982e+01    4.740476e+00
  2.041260e+01    4.758303e+00
  2.043538e+01    4.757574e+00
  2.045816e+01    4.729960e+00
  2.048095e+01    4.716594e+00
  2.050373e+01    4.687799e+00
  2.052651e+01    4.635509e+00
  2.054930e+01    4.674964e+00
  2.057208e+01    4.658099e+00
  2.059486e+01    4.696888e+00
  2.061764e+01    4.590237e+00
  2.064043e+01    4.609245e+00
  2.066321e+01    4.632616e+00
  2.068599e+01    4.730967e+00
  2.070878e+01    4.669081e+00
  2.073156e+01    4.645351e+00
  2.075434e+01    4.648317e+00
  2.077712e+01    4.602459e+00
  2.079991e+01    4.596936e+00
  2.082269e+01    4.519103e+00
  2.084547e+01    4.545012e+00
  2.086825e+01    4.611764e+00
  2.089104e+01    4.594137e+00
  2.091382e+01    4.576516e+00
  2.093660e+01    4.535391e+00
  2.095939e+01    4.516320e+00
  2.098217e+01    4.538479e+00
  2.100495e+01    4.483588e+00
  2.102773e+01    4.484618e+00
  2.105052e+01    4.531256e+00
  2.107330e+01    4.519187e+00
  2.109608e+01    4.491089e+00
  2.111887e+01    4.467774e+00
  2.114165e+01    4.515467e+00
  2.116443e+01    4.466075e+00
  2.118721e+01    4.423988e+00
  2.121000e+01    4.497226e+00
  2.123278e+01    4.501781e+00
  2.125556e+01    4.481091e+00
  2.127835e+01    4.441972e+00
  2.130113e+01    4.447985e+00
  2.132391e+01    4.478725e+00
  2.134669e+01    4.470562e+00
  2.136948e+01    4.434134e+00
  2.139226e+01    4.397630e+00
  2.141504e+01    4.453562e+00
  2.143782e+01    4.442085e+00
  2.146061e+01    4.418828e+00
  2.148339e+01    4.416721e+00
  2.150617e+01    4.402507e+00
  2.152896e+01    4.376534e+00
  2.155174e+01    4.402956e+00
  2.157452e+01    4.372993e+00
  2.159730e+01    4.328531e+00
  2.162009e+01    4.316594e+00
  2.164287e+01    4.309198e+00
  2.166565e+01    4.373631e+00
  2.168844e+01    4.365221e+00
  2.171122e+01    4.333644e+00
  2.173400e+01    4.332867e+00
  2.175678e+01    4.317420e+00
  2.177957e+01    4.286909e+00
  2.180235e+01    4.287122e+00
  2.182513e+01    4.276218e+00
  2.184791e+01    4.267491e+00
  2.187070e+01    4.324052e+00
  2.189348e+01    4.359242e+00
  2.191626e+01    4.291310e+00
  2.193905e+01    4.340823e+00
  2.196183e+01    4.322876e+00
  2.198461e+01    4.276712e+00
  2.200739e+01    4.220009e+00
  2.203018e+01    4.240057e+00
  2.205296e+01    4.230975e+00
  2.207574e+01    4.238827e+00
  2.209853e+01    4.222681e+00
  2.212131e+01    4.255357e+00
  2.214409e+01    4.272346e+00
  2.216687e+01    4.215218e+00
  2.218966e+01    4.230631e+00
  2.221244e+01    4.240678e+00
  2.223522e+01    4.186658e+00
  2.225801e+01    4.158788e+00
  2.228079e+01    4.193493e+00
  2.230357e+01    4.204739e+00
  2.232635e+01    4.227221e+00
  2.234914e+01    4.219522e+00
  2.237192e+01    4.206809e+00
  2.239470e+01    4.230165e+00
  2.241748e+01    4.187939e+00
  2.244027e+01    4.157661e+00
  2.246305e+01    4.202893e+00
  2.248583e+01    4.188719e+00
  2.250862e+01    4.177687e+00
  2.253140e+01    4.130950e+00
  2.255418e+01    4.101575e+00
  2.257696e+01    4.141149e+00
  2.259975e+01    4.097332e+00
  2.262253e+01    4.095525e+00
  2.264531e+01    4.109543e+00
  2.266810e+01    4.143219e+00
  2.269088e+01    4.170769e+00
  2.271366e+01    4.181388e+00
  2.273644e+01    4.144983e+00
  2.275923e+01    4.150265e+00
  2.278201e+01    4.164580e+00
  2.280479e+01    4.108679e+00
  2.282758e+01    4.043478e+00
  2.285036e+01    4.070852e+00
  2.287314e+01    4.060764e+00
  2.289592e+01    4.055184e+00
  2.291871e+01    4.100076e+00
  2.294149e+01    4.098770e+00
  2.296427e+01    4.042064e+00
  2.298705e+01    4.085008e+00
  2.300984e+01    4.052145e+00
  2.303262e+01    4.007403e+00
  2.305540e+01    4.027138e+00
  2.307819e+01    4.067351e+00
  2.310097e+01    4.049385e+00
  2.312375e+01    3.971557e+00
  2.314653e+01    3.946821e+00
  2.316932e+01    3.985974e+00
  2.319210e+01    4.011925e+00
  2.321488e+01    3.965843e+00
  2.323767e+01    3.948906e+00
  2.326045e+01    3.982678e+00
  2.328323e+01    3.988294e+00
  2.330601e+01    3.955211e+00
  2.332880e+01    3.919033e+00
  2.335158e+01    3.939732e+00
  2.337436e+01    3.927422e+00
  2.339714e+01    3.948144e+00
  2.341993e+01    3.946580e+00
  2.344271e+01    3.949367e+00
  2.346549e+01    3.951241e+00
  2.348828e+01    3.972059e+00
  2.351106e+01    3.992472e+00
  2.353384e+01    4.008219e+00
  2.355662e+01    3.951172e+00
  2.357941e+01    3.947038e+00
  2.360219e+01    3.967058e+00
  2.362497e+01    3.938788e+00
  2.364776e+01    3.919075e+00
  2.367054e+01    3.860639e+00
  2.369332e+01    3.862349e+00
  2.371610e+01    3.842685e+00
  2.373889e+01    3.867212e+00
  2.376167e+01    3.856553e+00
  2.378445e+01    3.834945e+00
  2.380724e+01    3.816487e+00
  2.383002e+01    3.882640e+00
  2.385280e+01    3.890939e+00
  2.387558e+01    3.807046e+00
  2.389837e+01    3.801502e+00
  2.392115e+01    3.802166e+00
  2.394393e+01    3.823575e+00
  2.396671e+01    3.777913e+00
  2.398950e+01    3.767271e+00
  2.401228e+01    3.766941e+00
  2.403506e+01    3.796307e+00
  2.405785e+01    3.794553e+00
  2.408063e+01    3.794127e+00
  2.410341e+01    3.748607e+00
  2.412619e+01    3.763859e+00
  2.414898e+01    3.759816e+00
  2.417176e+01    3.742855e+00
  2.419454e+01    3.788586e+00
  2.421733e+01    3.774976e+00
  2.424011e+01    3.758012e+00
  2.426289e+01    3.714198e+00
  2.428567e+01    3.758934e+00
  2.430846e+01    3.721371e+00
  2.433124e+01    3.714283e+00
  2.435402e+01    3.755593e+00
  2.437681e+01    3.713402e+00
  2.439959e+01    3.669281e+00
  2.442237e+01    3.707201e+00
  2.444515e+01    3.753293e+00
  2.446794e+01    3.679469e+00
  2.449072e+01    3.644163e+00
  2.451350e+01    3.601525e+00
  2.453628e+01    3.601019e+00
  2.455907e+01    3.593067e+00
  2.458185e+01    3.613492e+00
  2.460463e+01    3.646029e+00
  2.462742e+01    3.624530e+00
  2.465020e+01    3.592552e+00
  2.467298e+01    3.591143e+00
  2.469576e+01    3.575542e+00
  2.471855e+01    3.602514e+00
  2.474133e+01    3.572173e+00
  2.476411e+01    3.635126e+00
  2.478690e+01    3.621276e+00
  2.480968e+01    3.609912e+00
  2.483246e+01    3.612678e+00
  2.485524e+01    3.564244e+00
  2.487803e+01    3.604240e+00
  2.490081e+01    3.632724e+00
  2.492359e+01    3.606134e+00
  2.494637e+01    3.571328e+00
  2.496916e+01    3.565938e+00
  2.499194e+01    3.573096e+00
  2.501472e+01    3.619998e+00
  2.503751e+01    3.627321e+00
  2.506029e+01    3.547957e+00
  2.508307e+01    3.520046e+00
  2.510585e+01    3.534873e+00
  2.512864e+01    3.504456e+00
  2.515142e+01    3.532901e+00
  2.517420e+01    3.546242e+00
  2.519699e+01    3.526803e+00
  2.521977e+01    3.485767e+00
  2.524255e+01    3.455015e+00
  2.526533e+01    3.498965e+00
  2.528812e+01    3.504270e+00
  2.531090e+01    3.489219e+00
  2.533368e+01    3.454102e+00
  2.535647e+01    3.398711e+00
  2.537925e+01    3.482331e+00
  2.540203e+01    3.497363e+00
  2.542481e+01    3.487674e+00
  2.544760e+01    3.485020e+00
  2.547038e+01    3.414497e+00
  2.549316e+01    3.422540e+00
  2.551594e+01    3.426025e+00
  2.553873e+01    3.402990e+00
  2.556151e+01    3.406124e+00
  2.558429e+01    3.432260e+00
  2.560708e+01    3.419444e+00
  2.562986e+01    3.421155e+00
  2.565264e+01    3.387745e+00
  2.567542e+01    3.420712e+00
  2.569821e+01    3.419886e+00
  2.572099e+01    3.410564e+00
  2.574377e+01    3.392226e+00
  2.576656e+01    3.430017e+00
  2.578934e+01    3.423858e+00
  2.581212e+01    3.354557e+00
  2.583490e+01    3.334006e+00
  2.585769e+01    3.374902e+00
  2.588047e+01    3.370516e+00
  2.590325e+01    3.347271e+00
  2.592604e+01    3.311961e+00
  2.594882e+01    3.316326e+00
  2.597160e+01    3.339505e+00
  2.599438e+01    3.306253e+00
  2.601717e+01    3.319174e+00
  2.603995e+01    3.314812e+00
  2.606273e+01    3.344512e+00
  2.608551e+01    3.297901e+00
  2.610830e+01    3.291013e+00
  2.613108e+01    3.253225e+00
  2.615386e+01    3.252270e+00
  2.617665e+01    3.239038e+00
  2.619943e+01    3.268209e+00
  2.622221e+01    3.258581e+00
  2.624499e+01    3.223021e+00
  2.626778e+01    3.243773e+00
  2.629056e+01    3.255085e+00
  2.631334e+01    3.205253e+00
  2.633613e+01    3.233243e+00
  2.635891e+01    3.195729e+00
  2.638169e+01    3.207586e+00
  2.640447e+01    3.190933e+00
  2.642726e+01    3.139817e+00
  2.645004e+01    3.210104e+00
  2.647282e+01    3.205902e+00
  2.649560e+01    3.193703e+00
  2.651839e+01    3.181842e+00
  2.654117e+01    3.169062e+00
  2.656395e+01    3.093133e+00
  2.658674e+01    3.132585e+00
  2.660952e+01    3.163356e+00
  2.663230e+01    3.138982e+00
  2.665508e+01    3.143429e+00
  2.667787e+01    3.137695e+00
  2.670065e+01    3.133879e+00
  2.672343e+01    3.125268e+00
  2.674622e+01    3.157062e+00
  2.676900e+01    3.152910e+00
  2.679178e+01    3.137722e+00
  2.681456e+01    3.106607e+00
  2.683735e+01    3.089139e+00
  2.686013e+01    3.080721e+00
  2.688291e+01    3.093527e+00
  2.690570e+01    3.104750e+00
  2.692848e+01    3.111563e+00
  2.695126e+01    3.082239e+00
  2.697404e+01    3.082812e+00
  2.699683e+01    3.068840e+00
  2.701961e+01    3.055416e+00
  2.704239e+01    3.115243e+00
  2.706517e+01    3.099249e+00
  2.708796e+01    3.097723e+00
  2.711074e+01    3.089943e+00
  2.713352e+01    3.104148e+00
  2.715631e+01    3.074787e+00
  2.717909e+01    3.086552e+00
  2.720187e+01    3.051513e+00
  2.722465e+01    3.087734e+00
  2.724744e+01    3.064435e+00
  2.727022e+01    3.072459e+00
  2.729300e+01    3.088711e+00
  2.731579e+01    3.050548e+00
  2.733857e+01    3.102475e+00
  2.736135e+01    3.064945e+00
  2.738413e+01    3.054361e+00
  2.740692e+01    3.041475e+00
  2.742970e+01    3.059247e+00
  2.745248e+01    3.037025e+00
  2.747527e+01    3.011040e+00
  2.749805e+01    3.029355e+00
  2.752083e+01    3.098060e+00
  2.754361e+01    3.056625e+00
  2.756640e+01    3.083953e+00
  2.758918e+01    3.142904e+00
  2.761196e+01    3.088262e+00
  2.763474e+01    3.035816e+00
  2.765753e+01    3.025667e+00
  2.768031e+01    3.059866e+00
  2.770309e+01    3.089186e+00
  2.772588e+01    3.028361e+00
  2.774866e+01    3.029413e+00
  2.777144e+01    3.032214e+00
  2.779422e+01    3.055089e+00
  2.781701e+01    3.060927e+00
  2.783979e+01    3.062695e+00
  2.786257e+01    3.116545e+00
  2.788536e+01    3.152486e+00
  2.790814e+01    3.085170e+00
  2.793092e+01    3.001879e+00
  2.795370e+01    3.049703e+00
  2.797649e+01    3.033508e+00
  2.799927e+01    3.031937e+00
  2.802205e+01    3.003410e+00
  2.804483e+01    3.023277e+00
  2.806762e+01    3.065861e+00
  2.809040e+01    3.093414e+00
  2.811318e+01    2.985903e+00
  2.813597e+01    3.038414e+00
  2.815875e+01    3.021214e+00
  2.818153e+01    3.005908e+00
  2.820431e+01    2.986270e+00
  2.822710e+01    3.034762e+00
  2.824988e+01    3.054199e+00
  2.827266e+01    3.006033e+00
  2.829545e+01    2.972282e+00
  2.831823e+01    2.946396e+00
  2.834101e+01    2.991118e+00
  2.836379e+01    2.922171e+00
  2.838658e+01    2.922610e+00
  2.840936e+01    2.950866e+00
  2.843214e+01    2.979812e+00
  2.845493e+01    2.898183e+00
  2.847771e+01    2.880484e+00
  2.850049e+01    2.886018e+00
  2.852327e+01    2.868688e+00
  2.854606e+01    2.874194e+00
  2.856884e+01    2.893260e+00
  2.859162e+01    2.895160e+00
  2.861440e+01    2.900788e+00
  2.863719e+01    2.848028e+00
  2.865997e+01    2.840658e+00
  2.868275e+01    2.850189e+00
  2.870554e+01    2.863289e+00
  2.872832e+01    2.841056e+00
  2.875110e+01    2.854296e+00
  2.877388e+01    2.841182e+00
  2.879667e+01    2.823234e+00
  2.881945e+01    2.788061e+00
  2.884223e+01    2.828091e+00
  2.886502e+01    2.851111e+00
  2.888780e+01    2.784415e+00
  2.891058e+01    2.850235e+00
  2.893336e+01    2.837921e+00
  2.895615e+01    2.874779e+00
  2.897893e+01    2.858612e+00
  2.900171e+01    2.828795e+00
  2.902450e+01    2.798019e+00
  2.904728e+01    2.781789e+00
  2.907006e+01    2.800483e+00
  2.909284e+01    2.827296e+00
  2.911563e+01    2.884336e+00
  2.913841e+01    2.797698e+00
  2.916119e+01    2.783611e+00
  2.918397e+01    2.830685e+00
  2.920676e+01    2.829881e+00
  2.922954e+01    2.873327e+00
  2.925232e+01    2.838665e+00
  2.927511e+01    2.796442e+00
  2.929789e+01    2.855340e+00
  2.932067e+01    2.819208e+00
  2.934345e+01    2.834386e+00
  2.936624e+01    2.796324e+00
  2.938902e+01    2.752506e+00
  2.941180e+01    2.776097e+00
  2.943459e+01    2.756048e+00
  2.945737e+01    2.791261e+00
  2.948015e+01    2.784298e+00
  2.950293e+01    2.771803e+00
  2.952572e+01    2.787698e+00
  2.954850e+01    2.741034e+00
  2.957128e+01    2.765171e+00
  2.959407e+01    2.753612e+00
  2.961685e+01    2.712733e+00
  2.963963e+01    2.685524e+00
  2.966241e+01    2.757398e+00
  2.968520e+01    2.765559e+00
  2.970798e+01    2.753022e+00
  2.973076e+01    2.738552e+00
  2.975354e+01    2.730440e+00
  2.977633e+01    2.692671e+00
  2.979911e+01    2.688497e+00
  2.982189e+01    2.709770e+00
  2.984468e+01    2.672519e+00
  2.986746e+01    2.672943e+00
  2.989024e+01    2.614158e+00
  2.991302e+01    2.624418e+00
  2.993581e+01    2.640659e+00
  2.995859e+01    2.702807e+00
  2.998137e+01    2.707552e+00
  3.000416e+01    2.672566e+00
  3.002694e+01    2.665602e+00
  3.004972e+01    2.667475e+00
  3.007250e+01    2.670202e+00
  3.009529e+01    2.612665e+00
  3.011807e+01    2.599006e+00
  3.014085e+01    2.579386e+00
  3.016363e+01    2.585582e+00
  3.018642e+01    2.574396e+00
  3.020920e+01    2.595662e+00
  3.023198e+01    2.536635e+00
  3.025477e+01    2.547715e+00
  3.027755e+01    2.572999e+00
  3.030033e+01    2.553603e+00
  3.032311e+01    2.613524e+00
  3.034590e+01    2.563295e+00
  3.036868e+01    2.519347e+00
  3.039146e+01    2.573146e+00
  3.041425e+01    2.539413e+00
  3.043703e+01    2.547795e+00
  3.045981e+01    2.494185e+00
  3.048259e+01    2.467958e+00
  3.050538e+01    2.533589e+00
  3.052816e+01    2.521025e+00
  3.055094e+01    2.401853e+00
  3.057373e+01    2.423868e+00
  3.059651e+01    2.441736e+00
  3.061929e+01    2.347977e+00
  3.064207e+01    2.394427e+00
  3.066486e+01    2.459960e+00
  3.068764e+01    2.441009e+00
  3.071042e+01    2.404877e+00
  3.073320e+01    2.447531e+00
  3.075599e+01    2.411768e+00
  3.077877e+01    2.415271e+00
  3.080155e+01    2.422799e+00
  3.082434e+01    2.337736e+00
  3.084712e+01    2.442432e+00
  3.086990e+01    2.368508e+00
  3.089268e+01    2.297909e+00
  3.091547e+01    2.303965e+00
  3.093825e+01    2.308520e+00
  3.096103e+01    2.340625e+00
  3.098382e+01    2.324625e+00
  3.100660e+01    2.327112e+00
  3.102938e+01    2.292532e+00
  3.105216e+01    2.300526e+00
  3.107495e+01    2.296324e+00
  3.109773e+01    2.329758e+00
  3.112051e+01    2.364880e+00
  3.114330e+01    2.319967e+00
  3.116608e+01    2.310749e+00
  3.118886e+01    2.271940e+00
  3.121164e+01    2.239190e+00
  3.123443e+01    2.329452e+00
  3.125721e+01    2.228019e+00
  3.127999e+01    2.245640e+00
  3.130277e+01    2.259498e+00
  3.132556e+01    2.280137e+00
  3.134834e+01    2.287462e+00
  3.137112e+01    2.286412e+00
  3.139391e+01    2.268880e+00
  3.141669e+01    2.285280e+00
  3.143947e+01    2.246067e+00
  3.146225e+01    2.204782e+00
  3.148504e+01    2.198869e+00
  3.150782e+01    2.241451e+00
  3.153060e+01    2.204331e+00
  3.155339e+01    2.246799e+00
  3.157617e+01    2.178189e+00
  3.159895e+01    2.151807e+00
  3.162173e+01    2.093406e+00
  3.164452e+01    2.170177e+00
  3.166730e+01    2.119082e+00
  3.169008e+01    2.104132e+00
  3.171286e+01    2.158778e+00
  3.173565e+01    2.150400e+00
  3.175843e+01    2.117142e+00
  3.178121e+01    2.079833e+00
  3.180400e+01    2.044232e+00
  3.182678e+01    2.106491e+00
  3.184956e+01    2.102019e+00
  3.187234e+01    2.145116e+00
  3.189513e+01    2.136017e+00
  3.191791e+01    2.155160e+00
  3.194069e+01    2.110731e+00
  3.196348e+01    2.041616e+00
  3.198626e+01    2.095380e+00
  3.200904e+01    2.142638e+00
  3.203182e+01    2.113847e+00
  3.205461e+01    2.071690e+00
  3.207739e+01    2.030525e+00
  3.210017e+01    2.053864e+00
  3.212296e+01    2.039321e+00
  3.214574e+01    2.038439e+00
  3.216852e+01    2.036793e+00
  3.219130e+01    2.034214e+00
  3.221409e+01    2.047626e+00
  3.223687e+01    1.960511e+00
  3.225965e+01    2.033078e+00
  3.228243e+01    1.998096e+00
  3.230522e+01    1.987958e+00
  3.232800e+01    1.977975e+00
  3.235078e+01    1.957446e+00
  3.237357e+01    1.977240e+00
  3.239635e+01    1.997095e+00
  3.241913e+01    2.151267e+00
  3.244191e+01    2.094739e+00
  3.246470e+01    1.972090e+00
  3.248748e+01    1.939518e+00
  3.251026e+01    1.911695e+00
  3.253305e+01    1.939586e+00
  3.255583e+01    1.970458e+00
  3.257861e+01    2.004008e+00
  3.260139e+01    1.953578e+00
  3.262418e+01    2.014764e+00
  3.264696e+01    1.949297e+00
  3.266974e+01    1.861197e+00
  3.269253e+01    1.909625e+00
  3.271531e+01    1.858809e+00
  3.273809e+01    1.896083e+00
  3.276087e+01    1.874956e+00
  3.278366e+01    1.815359e+00
  3.280644e+01    1.850577e+00
  3.282922e+01    1.956706e+00
  3.285200e+01    1.935830e+00
  3.287479e+01    1.934007e+00
  3.289757e+01    1.940756e+00
  3.292035e+01    1.865891e+00
  3.294314e+01    1.935932e+00
  3.296592e+01    1.851233e+00
  3.298870e+01    1.837927e+00
  3.301148e+01    1.897814e+00
  3.303427e+01    1.944178e+00
  3.305705e+01    2.075803e+00
  3.307983e+01    1.889980e+00
  3.310262e+01    1.811074e+00
  3.312540e+01    1.812189e+00
  3.314818e+01    2.033062e+00
  3.317096e+01    1.862868e+00
  3.319375e+01    1.833978e+00
  3.321653e+01    1.949039e+00
  3.323931e+01    1.812201e+00
  3.326209e+01    1.736672e+00
  3.328488e+01    1.833606e+00
  3.330766e+01    1.674948e+00
  3.333044e+01    1.635974e+00
  3.335323e+01    2.006446e+00
  3.337601e+01    1.695744e+00
  3.339879e+01    1.765451e+00
  3.342157e+01    2.664391e+00
  3.344436e+01    2.813034e+00
  3.346714e+01    1.970396e+00
  3.348992e+01    9.763350e-01
  3.351271e+01    3.735697e-01
  3.353549e+01    0.000000e+00
  3.355827e+01    0.000000e+00
  3.358105e+01    0.000000e+00
  3.360384e+01    0.000000e+00
  3.362662e+01    0.000000e+00
  3.364940e+01    0.000000e+00
  3.367219e+01    0.000000e+00
  3.369497e+01    0.000000e+00
  3.371775e+01    0.000000e+00
