# == pyFAI calibration ==
# Distance Sample to Detector: 0.21311058206280517 m
# PONI: 2.037e-01, 1.993e-01 m
# Rotations: -0.005459 0.000134 0.000000 rad
# 
# == Fit2d calibration ==
# Distance Sample-beamCenter: 213.114 mm
# Center: x=1002.134, y=1018.730 pix
# Tilt: 0.313 deg  TiltPlanRot: 1.411 deg
# 
# Detector Perkin detector	 PixelSize= 2.000e-04, 2.000e-04 m
#    Detector has a mask: False 
#    Detector has a dark current: False 
#    detector has a flat field: False 
# 
# Wavelength: 1.675e-11 m
# Mask applied: provided
# Dark current applied: False
# Flat field applied: False
# Polarization factor: None
# Normalization factor: 1.0
# --> data/chi_bkgsub_true/C_Tatania3-0.0-average.chi
#        q_A^-1             I 
  2.199784e-02    1.717482e+00
  4.478064e-02    1.707437e+00
  6.756343e-02    1.516889e+00
  9.034623e-02    1.060833e+00
  1.131290e-01    1.070368e+00
  1.359118e-01    1.445463e+00
  1.586946e-01    1.515985e+00
  1.814774e-01    1.670373e+00
  2.042602e-01    1.736165e+00
  2.270430e-01    2.151001e+00
  2.498258e-01    3.328794e+00
  2.726086e-01    6.844349e+00
  2.953914e-01    2.090449e+01
  3.181742e-01    3.888174e+01
  3.409570e-01    3.398601e+01
  3.637398e-01    1.543801e+01
  3.865226e-01    7.939242e+00
  4.093054e-01    6.003452e+00
  4.320881e-01    5.169162e+00
  4.548709e-01    4.406029e+00
  4.776537e-01    4.359626e+00
  5.004365e-01    4.065280e+00
  5.232193e-01    3.918001e+00
  5.460021e-01    4.625626e+00
  5.687849e-01    5.713215e+00
  5.915677e-01    6.912343e+00
  6.143505e-01    7.876393e+00
  6.371333e-01    8.064950e+00
  6.599161e-01    8.082434e+00
  6.826989e-01    7.253683e+00
  7.054817e-01    5.894629e+00
  7.282645e-01    5.081978e+00
  7.510473e-01    4.587279e+00
  7.738301e-01    4.495049e+00
  7.966129e-01    4.507219e+00
  8.193956e-01    4.367520e+00
  8.421784e-01    3.911693e+00
  8.649612e-01    3.732820e+00
  8.877440e-01    3.693947e+00
  9.105268e-01    3.953297e+00
  9.333096e-01    3.993039e+00
  9.560924e-01    3.925140e+00
  9.788752e-01    4.024065e+00
  1.001658e+00    4.258729e+00
  1.024441e+00    4.141585e+00
  1.047224e+00    4.109212e+00
  1.070006e+00    3.897728e+00
  1.092789e+00    3.974984e+00
  1.115572e+00    3.612082e+00
  1.138355e+00    3.345637e+00
  1.161138e+00    3.050351e+00
  1.183920e+00    3.167238e+00
  1.206703e+00    3.080940e+00
  1.229486e+00    3.086736e+00
  1.252269e+00    2.845393e+00
  1.275052e+00    3.206616e+00
  1.297834e+00    3.212083e+00
  1.320617e+00    2.159270e+00
  1.343400e+00    1.928704e+00
  1.366183e+00    2.244117e+00
  1.388966e+00    2.433347e+00
  1.411748e+00    2.247412e+00
  1.434531e+00    2.661602e+00
  1.457314e+00    2.886079e+00
  1.480097e+00    2.663293e+00
  1.502879e+00    1.592777e+00
  1.525662e+00    1.477025e+00
  1.548445e+00    1.740560e+00
  1.571228e+00    2.526101e+00
  1.594011e+00    3.030883e+00
  1.616793e+00    3.235278e+00
  1.639576e+00    2.893221e+00
  1.662359e+00    2.145061e+00
  1.685142e+00    2.124423e+00
  1.707925e+00    2.331964e+00
  1.730707e+00    2.214405e+00
  1.753490e+00    2.092797e+00
  1.776273e+00    1.789794e+00
  1.799056e+00    1.823585e+00
  1.821839e+00    2.770143e+00
  1.844621e+00    3.335936e+00
  1.867404e+00    3.484102e+00
  1.890187e+00    3.244157e+00
  1.912970e+00    2.357524e+00
  1.935753e+00    2.206119e+00
  1.958535e+00    2.310566e+00
  1.981318e+00    2.091260e+00
  2.004101e+00    2.926660e+00
  2.026884e+00    2.576609e+00
  2.049667e+00    3.379348e+00
  2.072449e+00    3.745812e+00
  2.095232e+00    3.173877e+00
  2.118015e+00    2.797217e+00
  2.140798e+00    3.186930e+00
  2.163581e+00    3.877510e+00
  2.186363e+00    4.981262e+00
  2.209146e+00    4.827018e+00
  2.231929e+00    4.133217e+00
  2.254712e+00    4.198240e+00
  2.277494e+00    3.868512e+00
  2.300277e+00    3.805057e+00
  2.323060e+00    3.881553e+00
  2.345843e+00    4.568018e+00
  2.368626e+00    4.572527e+00
  2.391408e+00    4.542549e+00
  2.414191e+00    4.559987e+00
  2.436974e+00    4.696270e+00
  2.459757e+00    5.070506e+00
  2.482540e+00    5.247761e+00
  2.505322e+00    4.841358e+00
  2.528105e+00    5.002123e+00
  2.550888e+00    5.036699e+00
  2.573671e+00    4.839224e+00
  2.596454e+00    4.712706e+00
  2.619236e+00    5.028679e+00
  2.642019e+00    5.157969e+00
  2.664802e+00    4.811298e+00
  2.687585e+00    4.378967e+00
  2.710368e+00    4.239905e+00
  2.733150e+00    3.839678e+00
  2.755933e+00    3.722008e+00
  2.778716e+00    4.069073e+00
  2.801499e+00    3.834225e+00
  2.824282e+00    3.718132e+00
  2.847064e+00    3.654317e+00
  2.869847e+00    3.802064e+00
  2.892630e+00    4.127289e+00
  2.915413e+00    4.112059e+00
  2.938196e+00    3.893672e+00
  2.960978e+00    3.736500e+00
  2.983761e+00    3.824542e+00
  3.006544e+00    3.904825e+00
  3.029327e+00    3.988740e+00
  3.052110e+00    4.235205e+00
  3.074892e+00    4.611850e+00
  3.097675e+00    4.368054e+00
  3.120458e+00    4.258773e+00
  3.143241e+00    4.037806e+00
  3.166023e+00    3.998437e+00
  3.188806e+00    3.993258e+00
  3.211589e+00    4.159383e+00
  3.234372e+00    4.321586e+00
  3.257155e+00    4.200161e+00
  3.279937e+00    3.922832e+00
  3.302720e+00    3.985010e+00
  3.325503e+00    4.120517e+00
  3.348286e+00    4.020510e+00
  3.371069e+00    4.180928e+00
  3.393851e+00    4.009128e+00
  3.416634e+00    3.714853e+00
  3.439417e+00    3.715642e+00
  3.462200e+00    3.791779e+00
  3.484983e+00    3.904711e+00
  3.507765e+00    3.807914e+00
  3.530548e+00    4.003823e+00
  3.553331e+00    3.999815e+00
  3.576114e+00    3.952626e+00
  3.598897e+00    3.745077e+00
  3.621679e+00    3.816522e+00
  3.644462e+00    3.762063e+00
  3.667245e+00    3.610711e+00
  3.690028e+00    3.741074e+00
  3.712811e+00    3.712057e+00
  3.735593e+00    3.812764e+00
  3.758376e+00    3.594184e+00
  3.781159e+00    3.540822e+00
  3.803942e+00    3.655987e+00
  3.826725e+00    3.280361e+00
  3.849507e+00    3.235834e+00
  3.872290e+00    3.245488e+00
  3.895073e+00    3.310158e+00
  3.917856e+00    3.578734e+00
  3.940638e+00    3.600857e+00
  3.963421e+00    3.415773e+00
  3.986204e+00    3.295862e+00
  4.008987e+00    3.398236e+00
  4.031770e+00    3.421042e+00
  4.054552e+00    3.534039e+00
  4.077335e+00    3.444952e+00
  4.100118e+00    3.315153e+00
  4.122901e+00    3.566677e+00
  4.145684e+00    3.630119e+00
  4.168466e+00    3.689478e+00
  4.191249e+00    3.437129e+00
  4.214032e+00    3.489926e+00
  4.236815e+00    3.717412e+00
  4.259598e+00    3.649382e+00
  4.282380e+00    3.766059e+00
  4.305163e+00    3.679394e+00
  4.327946e+00    4.076578e+00
  4.350729e+00    4.068907e+00
  4.373512e+00    3.765089e+00
  4.396294e+00    4.099175e+00
  4.419077e+00    3.975042e+00
  4.441860e+00    3.865188e+00
  4.464643e+00    4.059381e+00
  4.487426e+00    4.414471e+00
  4.510208e+00    4.246754e+00
  4.532991e+00    4.196852e+00
  4.555774e+00    4.312907e+00
  4.578557e+00    4.324004e+00
  4.601340e+00    4.102357e+00
  4.624122e+00    4.101562e+00
  4.646905e+00    4.224852e+00
  4.669688e+00    4.453003e+00
  4.692471e+00    4.561057e+00
  4.715253e+00    4.684793e+00
  4.738036e+00    4.648464e+00
  4.760819e+00    4.665404e+00
  4.783602e+00    4.649120e+00
  4.806385e+00    4.526922e+00
  4.829167e+00    4.520495e+00
  4.851950e+00    4.448365e+00
  4.874733e+00    4.391585e+00
  4.897516e+00    4.231749e+00
  4.920299e+00    4.221373e+00
  4.943081e+00    4.098365e+00
  4.965864e+00    4.232558e+00
  4.988647e+00    4.253106e+00
  5.011430e+00    4.223308e+00
  5.034213e+00    4.145739e+00
  5.056995e+00    4.294034e+00
  5.079778e+00    4.433547e+00
  5.102561e+00    4.323561e+00
  5.125344e+00    4.393817e+00
  5.148127e+00    4.448936e+00
  5.170909e+00    4.408555e+00
  5.193692e+00    4.489161e+00
  5.216475e+00    4.611070e+00
  5.239258e+00    4.363863e+00
  5.262041e+00    4.326535e+00
  5.284823e+00    4.401349e+00
  5.307606e+00    4.418590e+00
  5.330389e+00    4.382638e+00
  5.353172e+00    4.499995e+00
  5.375955e+00    4.651155e+00
  5.398737e+00    4.857837e+00
  5.421520e+00    4.857577e+00
  5.444303e+00    4.847427e+00
  5.467086e+00    4.947354e+00
  5.489869e+00    5.107227e+00
  5.512651e+00    4.972778e+00
  5.535434e+00    4.801170e+00
  5.558217e+00    4.884043e+00
  5.581000e+00    4.971360e+00
  5.603782e+00    4.851773e+00
  5.626565e+00    5.112268e+00
  5.649348e+00    5.079544e+00
  5.672131e+00    4.821210e+00
  5.694914e+00    4.656605e+00
  5.717696e+00    4.515704e+00
  5.740479e+00    4.541758e+00
  5.763262e+00    4.423511e+00
  5.786045e+00    4.359063e+00
  5.808828e+00    4.427546e+00
  5.831610e+00    4.290286e+00
  5.854393e+00    4.230244e+00
  5.877176e+00    4.265954e+00
  5.899959e+00    4.362133e+00
  5.922742e+00    4.401798e+00
  5.945524e+00    4.437986e+00
  5.968307e+00    4.375345e+00
  5.991090e+00    4.172072e+00
  6.013873e+00    4.061425e+00
  6.036656e+00    4.008192e+00
  6.059438e+00    4.119351e+00
  6.082221e+00    4.217041e+00
  6.105004e+00    4.376007e+00
  6.127787e+00    4.193466e+00
  6.150570e+00    4.112395e+00
  6.173352e+00    4.127602e+00
  6.196135e+00    4.162131e+00
  6.218918e+00    4.117468e+00
  6.241701e+00    4.108954e+00
  6.264484e+00    4.057735e+00
  6.287266e+00    3.995141e+00
  6.310049e+00    4.067335e+00
  6.332832e+00    4.316691e+00
  6.355615e+00    4.319855e+00
  6.378397e+00    4.018609e+00
  6.401180e+00    4.044375e+00
  6.423963e+00    4.033114e+00
  6.446746e+00    4.053519e+00
  6.469529e+00    4.056817e+00
  6.492311e+00    3.996277e+00
  6.515094e+00    3.988940e+00
  6.537877e+00    4.115700e+00
  6.560660e+00    4.267984e+00
  6.583443e+00    4.193562e+00
  6.606225e+00    4.151097e+00
  6.629008e+00    4.178512e+00
  6.651791e+00    4.041368e+00
  6.674574e+00    3.844801e+00
  6.697357e+00    3.856594e+00
  6.720139e+00    3.922708e+00
  6.742922e+00    4.090821e+00
  6.765705e+00    4.130916e+00
  6.788488e+00    4.017936e+00
  6.811271e+00    4.015310e+00
  6.834053e+00    3.949457e+00
  6.856836e+00    4.062956e+00
  6.879619e+00    4.090117e+00
  6.902402e+00    4.034278e+00
  6.925185e+00    4.102404e+00
  6.947967e+00    4.065730e+00
  6.970750e+00    4.002144e+00
  6.993533e+00    4.018158e+00
  7.016316e+00    3.943175e+00
  7.039099e+00    3.819906e+00
  7.061881e+00    3.777446e+00
  7.084664e+00    3.904440e+00
  7.107447e+00    3.935973e+00
  7.130230e+00    3.958480e+00
  7.153013e+00    3.838426e+00
  7.175795e+00    3.679840e+00
  7.198578e+00    3.595774e+00
  7.221361e+00    3.525795e+00
  7.244144e+00    3.523971e+00
  7.266926e+00    3.469669e+00
  7.289709e+00    3.493911e+00
  7.312492e+00    3.513096e+00
  7.335275e+00    3.446574e+00
  7.358058e+00    3.486064e+00
  7.380840e+00    3.663651e+00
  7.403623e+00    3.690084e+00
  7.426406e+00    3.598453e+00
  7.449189e+00    3.522194e+00
  7.471972e+00    3.502986e+00
  7.494754e+00    3.519296e+00
  7.517537e+00    3.555634e+00
  7.540320e+00    3.590672e+00
  7.563103e+00    3.553253e+00
  7.585886e+00    3.340435e+00
  7.608668e+00    3.237198e+00
  7.631451e+00    3.403590e+00
  7.654234e+00    3.450518e+00
  7.677017e+00    3.530096e+00
  7.699800e+00    3.484571e+00
  7.722582e+00    3.505521e+00
  7.745365e+00    3.448663e+00
  7.768148e+00    3.385031e+00
  7.790931e+00    3.478431e+00
  7.813714e+00    3.513230e+00
  7.836496e+00    3.627196e+00
  7.859279e+00    3.707420e+00
  7.882062e+00    3.718620e+00
  7.904845e+00    3.564202e+00
  7.927628e+00    3.475934e+00
  7.950410e+00    3.494143e+00
  7.973193e+00    3.466253e+00
  7.995976e+00    3.558502e+00
  8.018759e+00    3.676642e+00
  8.041541e+00    3.851173e+00
  8.064324e+00    3.780446e+00
  8.087107e+00    3.681537e+00
  8.109890e+00    3.611499e+00
  8.132673e+00    3.634305e+00
  8.155455e+00    3.593172e+00
  8.178238e+00    3.622951e+00
  8.201021e+00    3.667428e+00
  8.223804e+00    3.781079e+00
  8.246587e+00    3.868866e+00
  8.269369e+00    3.726177e+00
  8.292152e+00    3.769338e+00
  8.314935e+00    3.829747e+00
  8.337718e+00    3.661293e+00
  8.360501e+00    3.697418e+00
  8.383283e+00    3.911644e+00
  8.406066e+00    3.896936e+00
  8.428849e+00    3.732519e+00
  8.451632e+00    3.745532e+00
  8.474415e+00    3.807482e+00
  8.497197e+00    3.725777e+00
  8.519980e+00    3.730169e+00
  8.542763e+00    3.810611e+00
  8.565546e+00    3.747342e+00
  8.588329e+00    3.750351e+00
  8.611111e+00    3.773868e+00
  8.633894e+00    3.745985e+00
  8.656677e+00    3.750736e+00
  8.679460e+00    3.712169e+00
  8.702243e+00    3.653644e+00
  8.725025e+00    3.680213e+00
  8.747808e+00    3.758435e+00
  8.770591e+00    3.806531e+00
  8.793374e+00    3.781715e+00
  8.816156e+00    3.689449e+00
  8.838939e+00    3.733381e+00
  8.861722e+00    3.779279e+00
  8.884505e+00    3.760650e+00
  8.907288e+00    3.653425e+00
  8.930070e+00    3.642857e+00
  8.952853e+00    3.653648e+00
  8.975636e+00    3.814854e+00
  8.998419e+00    3.751846e+00
  9.021202e+00    3.734639e+00
  9.043984e+00    3.715981e+00
  9.066767e+00    3.645192e+00
  9.089550e+00    3.576868e+00
  9.112333e+00    3.641933e+00
  9.135116e+00    3.717414e+00
  9.157898e+00    3.718013e+00
  9.180681e+00    3.804305e+00
  9.203464e+00    3.712949e+00
  9.226247e+00    3.679268e+00
  9.249030e+00    3.706345e+00
  9.271812e+00    3.638249e+00
  9.294595e+00    3.516633e+00
  9.317378e+00    3.558001e+00
  9.340161e+00    3.531553e+00
  9.362944e+00    3.588742e+00
  9.385726e+00    3.681062e+00
  9.408509e+00    3.749199e+00
  9.431292e+00    3.741795e+00
  9.454075e+00    3.671510e+00
  9.476858e+00    3.537302e+00
  9.499640e+00    3.543937e+00
  9.522423e+00    3.672621e+00
  9.545206e+00    3.744064e+00
  9.567989e+00    3.742958e+00
  9.590772e+00    3.615175e+00
  9.613554e+00    3.574600e+00
  9.636337e+00    3.573186e+00
  9.659120e+00    3.562910e+00
  9.681903e+00    3.551178e+00
  9.704685e+00    3.638920e+00
  9.727468e+00    3.631556e+00
  9.750251e+00    3.526946e+00
  9.773034e+00    3.406232e+00
  9.795817e+00    3.282786e+00
  9.818599e+00    3.423784e+00
  9.841382e+00    3.484575e+00
  9.864165e+00    3.378572e+00
  9.886948e+00    3.371306e+00
  9.909731e+00    3.525572e+00
  9.932513e+00    3.525443e+00
  9.955296e+00    3.471920e+00
  9.978079e+00    3.390530e+00
  1.000086e+01    3.393037e+00
  1.002364e+01    3.327944e+00
  1.004643e+01    3.372169e+00
  1.006921e+01    3.508208e+00
  1.009199e+01    3.447875e+00
  1.011478e+01    3.437592e+00
  1.013756e+01    3.400531e+00
  1.016034e+01    3.360848e+00
  1.018312e+01    3.294421e+00
  1.020591e+01    3.347552e+00
  1.022869e+01    3.372362e+00
  1.025147e+01    3.261944e+00
  1.027426e+01    3.232050e+00
  1.029704e+01    3.192052e+00
  1.031982e+01    3.257897e+00
  1.034260e+01    3.265935e+00
  1.036539e+01    3.364779e+00
  1.038817e+01    3.400735e+00
  1.041095e+01    3.415593e+00
  1.043373e+01    3.348794e+00
  1.045652e+01    3.365955e+00
  1.047930e+01    3.248023e+00
  1.050208e+01    3.201159e+00
  1.052487e+01    3.247082e+00
  1.054765e+01    3.222750e+00
  1.057043e+01    3.256863e+00
  1.059321e+01    3.203081e+00
  1.061600e+01    3.243994e+00
  1.063878e+01    3.274438e+00
  1.066156e+01    3.296605e+00
  1.068435e+01    3.284030e+00
  1.070713e+01    3.317699e+00
  1.072991e+01    3.194643e+00
  1.075269e+01    3.209987e+00
  1.077548e+01    3.298298e+00
  1.079826e+01    3.325172e+00
  1.082104e+01    3.347423e+00
  1.084383e+01    3.232613e+00
  1.086661e+01    3.130644e+00
  1.088939e+01    3.201084e+00
  1.091217e+01    3.166883e+00
  1.093496e+01    3.100003e+00
  1.095774e+01    3.129800e+00
  1.098052e+01    3.162241e+00
  1.100330e+01    3.198306e+00
  1.102609e+01    3.271448e+00
  1.104887e+01    3.326532e+00
  1.107165e+01    3.366782e+00
  1.109444e+01    3.212393e+00
  1.111722e+01    3.188524e+00
  1.114000e+01    3.267466e+00
  1.116278e+01    3.228061e+00
  1.118557e+01    3.334658e+00
  1.120835e+01    3.332196e+00
  1.123113e+01    3.324296e+00
  1.125392e+01    3.328328e+00
  1.127670e+01    3.225442e+00
  1.129948e+01    3.242589e+00
  1.132226e+01    3.263100e+00
  1.134505e+01    3.189306e+00
  1.136783e+01    3.148479e+00
  1.139061e+01    3.100748e+00
  1.141340e+01    3.121351e+00
  1.143618e+01    3.121712e+00
  1.145896e+01    3.176522e+00
  1.148174e+01    3.137612e+00
  1.150453e+01    3.109937e+00
  1.152731e+01    3.096990e+00
  1.155009e+01    3.124151e+00
  1.157287e+01    3.074402e+00
  1.159566e+01    3.107748e+00
  1.161844e+01    3.144093e+00
  1.164122e+01    3.079170e+00
  1.166401e+01    3.053859e+00
  1.168679e+01    3.119495e+00
  1.170957e+01    3.152689e+00
  1.173235e+01    3.033302e+00
  1.175514e+01    3.092167e+00
  1.177792e+01    3.148452e+00
  1.180070e+01    3.139522e+00
  1.182349e+01    3.071264e+00
  1.184627e+01    3.110458e+00
  1.186905e+01    3.090263e+00
  1.189183e+01    3.141806e+00
  1.191462e+01    3.033116e+00
  1.193740e+01    2.971890e+00
  1.196018e+01    3.094045e+00
  1.198296e+01    3.028255e+00
  1.200575e+01    2.987992e+00
  1.202853e+01    3.033223e+00
  1.205131e+01    3.000786e+00
  1.207410e+01    2.960405e+00
  1.209688e+01    2.972513e+00
  1.211966e+01    2.960789e+00
  1.214244e+01    2.934911e+00
  1.216523e+01    2.974334e+00
  1.218801e+01    2.980841e+00
  1.221079e+01    2.966789e+00
  1.223358e+01    3.089301e+00
  1.225636e+01    2.963979e+00
  1.227914e+01    2.935740e+00
  1.230192e+01    3.055561e+00
  1.232471e+01    3.036123e+00
  1.234749e+01    3.056458e+00
  1.237027e+01    3.154937e+00
  1.239306e+01    3.175673e+00
  1.241584e+01    3.142099e+00
  1.243862e+01    3.113597e+00
  1.246140e+01    3.129982e+00
  1.248419e+01    3.199525e+00
  1.250697e+01    3.206546e+00
  1.252975e+01    3.180375e+00
  1.255253e+01    3.205026e+00
  1.257532e+01    3.234604e+00
  1.259810e+01    3.240334e+00
  1.262088e+01    3.259493e+00
  1.264367e+01    3.317366e+00
  1.266645e+01    3.236342e+00
  1.268923e+01    3.163257e+00
  1.271201e+01    3.065902e+00
  1.273480e+01    3.083340e+00
  1.275758e+01    3.164543e+00
  1.278036e+01    3.075442e+00
  1.280315e+01    3.156469e+00
  1.282593e+01    3.207847e+00
  1.284871e+01    3.146715e+00
  1.287149e+01    3.224922e+00
  1.289428e+01    3.164909e+00
  1.291706e+01    3.183493e+00
  1.293984e+01    3.209393e+00
  1.296263e+01    3.082741e+00
  1.298541e+01    3.121485e+00
  1.300819e+01    3.181774e+00
  1.303097e+01    3.243435e+00
  1.305376e+01    3.172683e+00
  1.307654e+01    3.213130e+00
  1.309932e+01    3.212934e+00
  1.312210e+01    3.095852e+00
  1.314489e+01    3.130457e+00
  1.316767e+01    3.162478e+00
  1.319045e+01    3.177875e+00
  1.321324e+01    3.174772e+00
  1.323602e+01    3.125515e+00
  1.325880e+01    3.206559e+00
  1.328158e+01    3.150012e+00
  1.330437e+01    3.107187e+00
  1.332715e+01    3.159885e+00
  1.334993e+01    3.095566e+00
  1.337272e+01    3.067056e+00
  1.339550e+01    3.015275e+00
  1.341828e+01    3.024124e+00
  1.344106e+01    2.965113e+00
  1.346385e+01    2.989289e+00
  1.348663e+01    3.073125e+00
  1.350941e+01    3.021173e+00
  1.353219e+01    3.005478e+00
  1.355498e+01    3.012187e+00
  1.357776e+01    3.014767e+00
  1.360054e+01    3.059114e+00
  1.362333e+01    3.007899e+00
  1.364611e+01    2.940577e+00
  1.366889e+01    2.913746e+00
  1.369167e+01    2.954811e+00
  1.371446e+01    2.920534e+00
  1.373724e+01    2.934064e+00
  1.376002e+01    2.950147e+00
  1.378281e+01    3.030985e+00
  1.380559e+01    3.075004e+00
  1.382837e+01    3.000336e+00
  1.385115e+01    3.012267e+00
  1.387394e+01    3.067245e+00
  1.389672e+01    3.064074e+00
  1.391950e+01    3.034145e+00
  1.394229e+01    3.085441e+00
  1.396507e+01    3.127811e+00
  1.398785e+01    3.010345e+00
  1.401063e+01    3.006051e+00
  1.403342e+01    3.013021e+00
  1.405620e+01    3.016727e+00
  1.407898e+01    2.992361e+00
  1.410176e+01    2.915879e+00
  1.412455e+01    2.862692e+00
  1.414733e+01    2.952850e+00
  1.417011e+01    2.936626e+00
  1.419290e+01    2.953987e+00
  1.421568e+01    3.068661e+00
  1.423846e+01    3.007811e+00
  1.426124e+01    2.942381e+00
  1.428403e+01    2.917321e+00
  1.430681e+01    2.965523e+00
  1.432959e+01    2.945740e+00
  1.435238e+01    2.931657e+00
  1.437516e+01    2.905192e+00
  1.439794e+01    2.787633e+00
  1.442072e+01    2.820617e+00
  1.444351e+01    2.858090e+00
  1.446629e+01    2.876058e+00
  1.448907e+01    2.862011e+00
  1.451186e+01    2.941401e+00
  1.453464e+01    2.906818e+00
  1.455742e+01    2.945591e+00
  1.458020e+01    2.930626e+00
  1.460299e+01    2.888646e+00
  1.462577e+01    2.936825e+00
  1.464855e+01    2.771533e+00
  1.467133e+01    2.794088e+00
  1.469412e+01    2.858184e+00
  1.471690e+01    2.937749e+00
  1.473968e+01    2.926244e+00
  1.476247e+01    2.837281e+00
  1.478525e+01    2.851823e+00
  1.480803e+01    2.902178e+00
  1.483081e+01    2.913922e+00
  1.485360e+01    2.930490e+00
  1.487638e+01    2.929937e+00
  1.489916e+01    2.866745e+00
  1.492195e+01    2.810044e+00
  1.494473e+01    2.782592e+00
  1.496751e+01    2.842097e+00
  1.499029e+01    2.879631e+00
  1.501308e+01    2.872417e+00
  1.503586e+01    2.874429e+00
  1.505864e+01    2.841619e+00
  1.508142e+01    2.859375e+00
  1.510421e+01    2.775644e+00
  1.512699e+01    2.825370e+00
  1.514977e+01    2.908777e+00
  1.517256e+01    2.891708e+00
  1.519534e+01    2.928569e+00
  1.521812e+01    2.843939e+00
  1.524090e+01    2.844079e+00
  1.526369e+01    2.802378e+00
  1.528647e+01    2.800539e+00
  1.530925e+01    2.834785e+00
  1.533204e+01    2.839359e+00
  1.535482e+01    2.832958e+00
  1.537760e+01    2.866733e+00
  1.540038e+01    2.840930e+00
  1.542317e+01    2.827800e+00
  1.544595e+01    2.825976e+00
  1.546873e+01    2.816160e+00
  1.549152e+01    2.835425e+00
  1.551430e+01    2.847500e+00
  1.553708e+01    2.932753e+00
  1.555986e+01    2.832021e+00
  1.558265e+01    2.827978e+00
  1.560543e+01    2.839710e+00
  1.562821e+01    2.853490e+00
  1.565099e+01    2.811325e+00
  1.567378e+01    2.778777e+00
  1.569656e+01    2.741626e+00
  1.571934e+01    2.785403e+00
  1.574213e+01    2.844367e+00
  1.576491e+01    2.815144e+00
  1.578769e+01    2.768298e+00
  1.581047e+01    2.820637e+00
  1.583326e+01    2.890735e+00
  1.585604e+01    2.781255e+00
  1.587882e+01    2.788118e+00
  1.590161e+01    2.813838e+00
  1.592439e+01    2.861464e+00
  1.594717e+01    2.845630e+00
  1.596995e+01    2.802600e+00
  1.599274e+01    2.776655e+00
  1.601552e+01    2.824267e+00
  1.603830e+01    2.817259e+00
  1.606109e+01    2.818012e+00
  1.608387e+01    2.846601e+00
  1.610665e+01    2.810037e+00
  1.612943e+01    2.786180e+00
  1.615222e+01    2.749355e+00
  1.617500e+01    2.704175e+00
  1.619778e+01    2.723042e+00
  1.622056e+01    2.717870e+00
  1.624335e+01    2.741112e+00
  1.626613e+01    2.777494e+00
  1.628891e+01    2.787731e+00
  1.631170e+01    2.799762e+00
  1.633448e+01    2.669338e+00
  1.635726e+01    2.651145e+00
  1.638004e+01    2.675211e+00
  1.640283e+01    2.706631e+00
  1.642561e+01    2.785708e+00
  1.644839e+01    2.756129e+00
  1.647118e+01    2.764828e+00
  1.649396e+01    2.798697e+00
  1.651674e+01    2.790454e+00
  1.653952e+01    2.723944e+00
  1.656231e+01    2.804988e+00
  1.658509e+01    2.833814e+00
  1.660787e+01    2.830498e+00
  1.663065e+01    2.802744e+00
  1.665344e+01    2.781948e+00
  1.667622e+01    2.748678e+00
  1.669900e+01    2.768452e+00
  1.672179e+01    2.826096e+00
  1.674457e+01    2.755098e+00
  1.676735e+01    2.815696e+00
  1.679013e+01    2.827937e+00
  1.681292e+01    2.863605e+00
  1.683570e+01    2.807648e+00
  1.685848e+01    2.828133e+00
  1.688127e+01    2.796453e+00
  1.690405e+01    2.799991e+00
  1.692683e+01    2.802338e+00
  1.694961e+01    2.806506e+00
  1.697240e+01    2.785502e+00
  1.699518e+01    2.744470e+00
  1.701796e+01    2.741668e+00
  1.704075e+01    2.740210e+00
  1.706353e+01    2.798550e+00
  1.708631e+01    2.822467e+00
  1.710909e+01    2.796458e+00
  1.713188e+01    2.809226e+00
  1.715466e+01    2.831617e+00
  1.717744e+01    2.767985e+00
  1.720022e+01    2.756177e+00
  1.722301e+01    2.811091e+00
  1.724579e+01    2.753332e+00
  1.726857e+01    2.718221e+00
  1.729136e+01    2.700883e+00
  1.731414e+01    2.776616e+00
  1.733692e+01    2.767957e+00
  1.735970e+01    2.774945e+00
  1.738249e+01    2.775890e+00
  1.740527e+01    2.784806e+00
  1.742805e+01    2.758975e+00
  1.745084e+01    2.776295e+00
  1.747362e+01    2.736392e+00
  1.749640e+01    2.742497e+00
  1.751918e+01    2.670004e+00
  1.754197e+01    2.736923e+00
  1.756475e+01    2.724061e+00
  1.758753e+01    2.715035e+00
  1.761032e+01    2.698411e+00
  1.763310e+01    2.699991e+00
  1.765588e+01    2.715864e+00
  1.767866e+01    2.725025e+00
  1.770145e+01    2.751484e+00
  1.772423e+01    2.696675e+00
  1.774701e+01    2.684935e+00
  1.776979e+01    2.718688e+00
  1.779258e+01    2.678166e+00
  1.781536e+01    2.657585e+00
  1.783814e+01    2.634635e+00
  1.786093e+01    2.625569e+00
  1.788371e+01    2.658618e+00
  1.790649e+01    2.695749e+00
  1.792927e+01    2.694369e+00
  1.795206e+01    2.645317e+00
  1.797484e+01    2.640088e+00
  1.799762e+01    2.608178e+00
  1.802041e+01    2.604870e+00
  1.804319e+01    2.605993e+00
  1.806597e+01    2.687156e+00
  1.808875e+01    2.723770e+00
  1.811154e+01    2.707062e+00
  1.813432e+01    2.660748e+00
  1.815710e+01    2.669112e+00
  1.817989e+01    2.661200e+00
  1.820267e+01    2.625771e+00
  1.822545e+01    2.623980e+00
  1.824823e+01    2.619440e+00
  1.827102e+01    2.627834e+00
  1.829380e+01    2.554332e+00
  1.831658e+01    2.571948e+00
  1.833936e+01    2.584261e+00
  1.836215e+01    2.612244e+00
  1.838493e+01    2.599785e+00
  1.840771e+01    2.743690e+00
  1.843050e+01    2.660117e+00
  1.845328e+01    2.616889e+00
  1.847606e+01    2.623088e+00
  1.849884e+01    2.640391e+00
  1.852163e+01    2.574805e+00
  1.854441e+01    2.532551e+00
  1.856719e+01    2.597567e+00
  1.858998e+01    2.588088e+00
  1.861276e+01    2.595476e+00
  1.863554e+01    2.522238e+00
  1.865832e+01    2.579694e+00
  1.868111e+01    2.545822e+00
  1.870389e+01    2.570548e+00
  1.872667e+01    2.604463e+00
  1.874945e+01    2.525519e+00
  1.877224e+01    2.597674e+00
  1.879502e+01    2.609422e+00
  1.881780e+01    2.583392e+00
  1.884059e+01    2.546632e+00
  1.886337e+01    2.544069e+00
  1.888615e+01    2.573047e+00
  1.890893e+01    2.536495e+00
  1.893172e+01    2.603971e+00
  1.895450e+01    2.580842e+00
  1.897728e+01    2.598731e+00
  1.900007e+01    2.639999e+00
  1.902285e+01    2.566598e+00
  1.904563e+01    2.521490e+00
  1.906841e+01    2.490971e+00
  1.909120e+01    2.524551e+00
  1.911398e+01    2.494721e+00
  1.913676e+01    2.552027e+00
  1.915955e+01    2.567383e+00
  1.918233e+01    2.553527e+00
  1.920511e+01    2.472128e+00
  1.922789e+01    2.513849e+00
  1.925068e+01    2.521563e+00
  1.927346e+01    2.516736e+00
  1.929624e+01    2.505487e+00
  1.931902e+01    2.501903e+00
  1.934181e+01    2.569878e+00
  1.936459e+01    2.544493e+00
  1.938737e+01    2.488238e+00
  1.941016e+01    2.469177e+00
  1.943294e+01    2.475473e+00
  1.945572e+01    2.469948e+00
  1.947850e+01    2.477301e+00
  1.950129e+01    2.518460e+00
  1.952407e+01    2.472116e+00
  1.954685e+01    2.530368e+00
  1.956964e+01    2.539155e+00
  1.959242e+01    2.526876e+00
  1.961520e+01    2.496261e+00
  1.963798e+01    2.495120e+00
  1.966077e+01    2.489896e+00
  1.968355e+01    2.550577e+00
  1.970633e+01    2.534663e+00
  1.972912e+01    2.534585e+00
  1.975190e+01    2.456024e+00
  1.977468e+01    2.436532e+00
  1.979746e+01    2.459090e+00
  1.982025e+01    2.488218e+00
  1.984303e+01    2.438937e+00
  1.986581e+01    2.455354e+00
  1.988859e+01    2.483326e+00
  1.991138e+01    2.495550e+00
  1.993416e+01    2.473098e+00
  1.995694e+01    2.490894e+00
  1.997973e+01    2.502209e+00
  2.000251e+01    2.494388e+00
  2.002529e+01    2.498667e+00
  2.004807e+01    2.496016e+00
  2.007086e+01    2.508277e+00
  2.009364e+01    2.525791e+00
  2.011642e+01    2.506632e+00
  2.013921e+01    2.503375e+00
  2.016199e+01    2.458563e+00
  2.018477e+01    2.506933e+00
  2.020755e+01    2.451497e+00
  2.023034e+01    2.441865e+00
  2.025312e+01    2.464764e+00
  2.027590e+01    2.506773e+00
  2.029868e+01    2.480902e+00
  2.032147e+01    2.492754e+00
  2.034425e+01    2.503213e+00
  2.036703e+01    2.445290e+00
  2.038982e+01    2.444138e+00
  2.041260e+01    2.469315e+00
  2.043538e+01    2.440706e+00
  2.045816e+01    2.421672e+00
  2.048095e+01    2.423717e+00
  2.050373e+01    2.463086e+00
  2.052651e+01    2.462733e+00
  2.054930e+01    2.473822e+00
  2.057208e+01    2.466096e+00
  2.059486e+01    2.483977e+00
  2.061764e+01    2.479074e+00
  2.064043e+01    2.476028e+00
  2.066321e+01    2.447440e+00
  2.068599e+01    2.442256e+00
  2.070878e+01    2.427822e+00
  2.073156e+01    2.418520e+00
  2.075434e+01    2.450503e+00
  2.077712e+01    2.460860e+00
  2.079991e+01    2.391464e+00
  2.082269e+01    2.435517e+00
  2.084547e+01    2.409885e+00
  2.086825e+01    2.398259e+00
  2.089104e+01    2.448185e+00
  2.091382e+01    2.424161e+00
  2.093660e+01    2.412259e+00
  2.095939e+01    2.396225e+00
  2.098217e+01    2.420460e+00
  2.100495e+01    2.453505e+00
  2.102773e+01    2.419952e+00
  2.105052e+01    2.432512e+00
  2.107330e+01    2.467823e+00
  2.109608e+01    2.403523e+00
  2.111887e+01    2.398636e+00
  2.114165e+01    2.361746e+00
  2.116443e+01    2.357165e+00
  2.118721e+01    2.453637e+00
  2.121000e+01    2.382875e+00
  2.123278e+01    2.419569e+00
  2.125556e+01    2.374528e+00
  2.127835e+01    2.416738e+00
  2.130113e+01    2.437199e+00
  2.132391e+01    2.458259e+00
  2.134669e+01    2.432797e+00
  2.136948e+01    2.369763e+00
  2.139226e+01    2.382089e+00
  2.141504e+01    2.371282e+00
  2.143782e+01    2.469912e+00
  2.146061e+01    2.439836e+00
  2.148339e+01    2.438007e+00
  2.150617e+01    2.398047e+00
  2.152896e+01    2.384212e+00
  2.155174e+01    2.426579e+00
  2.157452e+01    2.400077e+00
  2.159730e+01    2.381581e+00
  2.162009e+01    2.383206e+00
  2.164287e+01    2.408285e+00
  2.166565e+01    2.360678e+00
  2.168844e+01    2.396848e+00
  2.171122e+01    2.383644e+00
  2.173400e+01    2.420182e+00
  2.175678e+01    2.354886e+00
  2.177957e+01    2.333647e+00
  2.180235e+01    2.352378e+00
  2.182513e+01    2.402854e+00
  2.184791e+01    2.359160e+00
  2.187070e+01    2.339653e+00
  2.189348e+01    2.416779e+00
  2.191626e+01    2.387659e+00
  2.193905e+01    2.410411e+00
  2.196183e+01    2.392203e+00
  2.198461e+01    2.373438e+00
  2.200739e+01    2.393828e+00
  2.203018e+01    2.356297e+00
  2.205296e+01    2.403817e+00
  2.207574e+01    2.355718e+00
  2.209853e+01    2.385853e+00
  2.212131e+01    2.420547e+00
  2.214409e+01    2.425025e+00
  2.216687e+01    2.407732e+00
  2.218966e+01    2.403929e+00
  2.221244e+01    2.347912e+00
  2.223522e+01    2.294125e+00
  2.225801e+01    2.364502e+00
  2.228079e+01    2.392493e+00
  2.230357e+01    2.417391e+00
  2.232635e+01    2.366017e+00
  2.234914e+01    2.365409e+00
  2.237192e+01    2.417472e+00
  2.239470e+01    2.396768e+00
  2.241748e+01    2.369683e+00
  2.244027e+01    2.380252e+00
  2.246305e+01    2.375415e+00
  2.248583e+01    2.385040e+00
  2.250862e+01    2.381161e+00
  2.253140e+01    2.363929e+00
  2.255418e+01    2.321442e+00
  2.257696e+01    2.379198e+00
  2.259975e+01    2.366283e+00
  2.262253e+01    2.371710e+00
  2.264531e+01    2.384886e+00
  2.266810e+01    2.410780e+00
  2.269088e+01    2.388724e+00
  2.271366e+01    2.364291e+00
  2.273644e+01    2.370709e+00
  2.275923e+01    2.410834e+00
  2.278201e+01    2.382355e+00
  2.280479e+01    2.321297e+00
  2.282758e+01    2.350309e+00
  2.285036e+01    2.362394e+00
  2.287314e+01    2.398550e+00
  2.289592e+01    2.370015e+00
  2.291871e+01    2.338634e+00
  2.294149e+01    2.407209e+00
  2.296427e+01    2.362445e+00
  2.298705e+01    2.377369e+00
  2.300984e+01    2.360773e+00
  2.303262e+01    2.349301e+00
  2.305540e+01    2.348730e+00
  2.307819e+01    2.393044e+00
  2.310097e+01    2.337714e+00
  2.312375e+01    2.346326e+00
  2.314653e+01    2.304641e+00
  2.316932e+01    2.297648e+00
  2.319210e+01    2.353773e+00
  2.321488e+01    2.347922e+00
  2.323767e+01    2.343313e+00
  2.326045e+01    2.331381e+00
  2.328323e+01    2.378187e+00
  2.330601e+01    2.356148e+00
  2.332880e+01    2.360439e+00
  2.335158e+01    2.317004e+00
  2.337436e+01    2.324220e+00
  2.339714e+01    2.351728e+00
  2.341993e+01    2.345264e+00
  2.344271e+01    2.326689e+00
  2.346549e+01    2.304056e+00
  2.348828e+01    2.301862e+00
  2.351106e+01    2.256764e+00
  2.353384e+01    2.332240e+00
  2.355662e+01    2.311689e+00
  2.357941e+01    2.298302e+00
  2.360219e+01    2.342802e+00
  2.362497e+01    2.350821e+00
  2.364776e+01    2.359355e+00
  2.367054e+01    2.334548e+00
  2.369332e+01    2.311432e+00
  2.371610e+01    2.288327e+00
  2.373889e+01    2.314723e+00
  2.376167e+01    2.304159e+00
  2.378445e+01    2.356915e+00
  2.380724e+01    2.315536e+00
  2.383002e+01    2.293994e+00
  2.385280e+01    2.268567e+00
  2.387558e+01    2.293992e+00
  2.389837e+01    2.308440e+00
  2.392115e+01    2.294002e+00
  2.394393e+01    2.310811e+00
  2.396671e+01    2.290583e+00
  2.398950e+01    2.321477e+00
  2.401228e+01    2.323502e+00
  2.403506e+01    2.338179e+00
  2.405785e+01    2.309628e+00
  2.408063e+01    2.256099e+00
  2.410341e+01    2.265077e+00
  2.412619e+01    2.327825e+00
  2.414898e+01    2.317557e+00
  2.417176e+01    2.298899e+00
  2.419454e+01    2.298624e+00
  2.421733e+01    2.311616e+00
  2.424011e+01    2.247301e+00
  2.426289e+01    2.246161e+00
  2.428567e+01    2.292248e+00
  2.430846e+01    2.279898e+00
  2.433124e+01    2.244671e+00
  2.435402e+01    2.302372e+00
  2.437681e+01    2.296029e+00
  2.439959e+01    2.283198e+00
  2.442237e+01    2.279737e+00
  2.444515e+01    2.286795e+00
  2.446794e+01    2.230451e+00
  2.449072e+01    2.220027e+00
  2.451350e+01    2.245229e+00
  2.453628e+01    2.231852e+00
  2.455907e+01    2.258413e+00
  2.458185e+01    2.251607e+00
  2.460463e+01    2.279818e+00
  2.462742e+01    2.269292e+00
  2.465020e+01    2.266936e+00
  2.467298e+01    2.290741e+00
  2.469576e+01    2.237786e+00
  2.471855e+01    2.190774e+00
  2.474133e+01    2.263249e+00
  2.476411e+01    2.281481e+00
  2.478690e+01    2.297398e+00
  2.480968e+01    2.257871e+00
  2.483246e+01    2.233107e+00
  2.485524e+01    2.185266e+00
  2.487803e+01    2.193590e+00
  2.490081e+01    2.312260e+00
  2.492359e+01    2.288333e+00
  2.494637e+01    2.270021e+00
  2.496916e+01    2.294155e+00
  2.499194e+01    2.268964e+00
  2.501472e+01    2.255795e+00
  2.503751e+01    2.263679e+00
  2.506029e+01    2.248024e+00
  2.508307e+01    2.221576e+00
  2.510585e+01    2.224087e+00
  2.512864e+01    2.209994e+00
  2.515142e+01    2.218920e+00
  2.517420e+01    2.214663e+00
  2.519699e+01    2.186557e+00
  2.521977e+01    2.256926e+00
  2.524255e+01    2.282133e+00
  2.526533e+01    2.225692e+00
  2.528812e+01    2.262664e+00
  2.531090e+01    2.248046e+00
  2.533368e+01    2.241550e+00
  2.535647e+01    2.185476e+00
  2.537925e+01    2.214265e+00
  2.540203e+01    2.208212e+00
  2.542481e+01    2.232360e+00
  2.544760e+01    2.203079e+00
  2.547038e+01    2.179038e+00
  2.549316e+01    2.170979e+00
  2.551594e+01    2.171426e+00
  2.553873e+01    2.187340e+00
  2.556151e+01    2.181427e+00
  2.558429e+01    2.191002e+00
  2.560708e+01    2.215332e+00
  2.562986e+01    2.232900e+00
  2.565264e+01    2.190089e+00
  2.567542e+01    2.219216e+00
  2.569821e+01    2.208186e+00
  2.572099e+01    2.187739e+00
  2.574377e+01    2.170779e+00
  2.576656e+01    2.161270e+00
  2.578934e+01    2.183151e+00
  2.581212e+01    2.152452e+00
  2.583490e+01    2.210658e+00
  2.585769e+01    2.183412e+00
  2.588047e+01    2.191932e+00
  2.590325e+01    2.187405e+00
  2.592604e+01    2.177351e+00
  2.594882e+01    2.171493e+00
  2.597160e+01    2.189776e+00
  2.599438e+01    2.218333e+00
  2.601717e+01    2.194222e+00
  2.603995e+01    2.163132e+00
  2.606273e+01    2.167254e+00
  2.608551e+01    2.166365e+00
  2.610830e+01    2.173221e+00
  2.613108e+01    2.128927e+00
  2.615386e+01    2.156315e+00
  2.617665e+01    2.167595e+00
  2.619943e+01    2.164953e+00
  2.622221e+01    2.133647e+00
  2.624499e+01    2.101432e+00
  2.626778e+01    2.153821e+00
  2.629056e+01    2.149097e+00
  2.631334e+01    2.141455e+00
  2.633613e+01    2.206223e+00
  2.635891e+01    2.118551e+00
  2.638169e+01    2.093310e+00
  2.640447e+01    2.109621e+00
  2.642726e+01    2.126285e+00
  2.645004e+01    2.140584e+00
  2.647282e+01    2.110312e+00
  2.649560e+01    2.120678e+00
  2.651839e+01    2.105730e+00
  2.654117e+01    2.128027e+00
  2.656395e+01    2.095564e+00
  2.658674e+01    2.127314e+00
  2.660952e+01    2.114036e+00
  2.663230e+01    2.109961e+00
  2.665508e+01    2.097566e+00
  2.667787e+01    2.114341e+00
  2.670065e+01    2.115850e+00
  2.672343e+01    2.100071e+00
  2.674622e+01    2.129777e+00
  2.676900e+01    2.123508e+00
  2.679178e+01    2.114213e+00
  2.681456e+01    2.091260e+00
  2.683735e+01    2.109147e+00
  2.686013e+01    2.109853e+00
  2.688291e+01    2.110040e+00
  2.690570e+01    2.121905e+00
  2.692848e+01    2.082674e+00
  2.695126e+01    2.067209e+00
  2.697404e+01    2.045703e+00
  2.699683e+01    2.130282e+00
  2.701961e+01    2.063658e+00
  2.704239e+01    2.052203e+00
  2.706517e+01    2.059933e+00
  2.708796e+01    2.014828e+00
  2.711074e+01    2.031902e+00
  2.713352e+01    2.055062e+00
  2.715631e+01    2.059027e+00
  2.717909e+01    2.021186e+00
  2.720187e+01    2.026439e+00
  2.722465e+01    2.053225e+00
  2.724744e+01    2.058771e+00
  2.727022e+01    2.041424e+00
  2.729300e+01    2.012481e+00
  2.731579e+01    2.025012e+00
  2.733857e+01    2.057281e+00
  2.736135e+01    2.024134e+00
  2.738413e+01    2.057853e+00
  2.740692e+01    2.042939e+00
  2.742970e+01    2.038446e+00
  2.745248e+01    2.049627e+00
  2.747527e+01    2.006533e+00
  2.749805e+01    2.051857e+00
  2.752083e+01    2.070621e+00
  2.754361e+01    2.080921e+00
  2.756640e+01    2.018625e+00
  2.758918e+01    2.024543e+00
  2.761196e+01    2.056794e+00
  2.763474e+01    2.071334e+00
  2.765753e+01    2.063882e+00
  2.768031e+01    2.081428e+00
  2.770309e+01    2.075046e+00
  2.772588e+01    2.058084e+00
  2.774866e+01    2.045599e+00
  2.777144e+01    2.028606e+00
  2.779422e+01    2.059591e+00
  2.781701e+01    2.017863e+00
  2.783979e+01    2.048664e+00
  2.786257e+01    2.105980e+00
  2.788536e+01    2.047534e+00
  2.790814e+01    2.054220e+00
  2.793092e+01    2.025834e+00
  2.795370e+01    2.085868e+00
  2.797649e+01    2.021638e+00
  2.799927e+01    2.013419e+00
  2.802205e+01    2.065261e+00
  2.804483e+01    2.088103e+00
  2.806762e+01    2.114780e+00
  2.809040e+01    2.096098e+00
  2.811318e+01    2.042546e+00
  2.813597e+01    2.055954e+00
  2.815875e+01    2.010750e+00
  2.818153e+01    1.996519e+00
  2.820431e+01    2.035866e+00
  2.822710e+01    2.046284e+00
  2.824988e+01    2.007561e+00
  2.827266e+01    2.031895e+00
  2.829545e+01    2.016236e+00
  2.831823e+01    2.015459e+00
  2.834101e+01    2.036798e+00
  2.836379e+01    2.049552e+00
  2.838658e+01    2.065168e+00
  2.840936e+01    2.063534e+00
  2.843214e+01    2.057926e+00
  2.845493e+01    1.986544e+00
  2.847771e+01    1.960832e+00
  2.850049e+01    2.000846e+00
  2.852327e+01    2.050696e+00
  2.854606e+01    2.046562e+00
  2.856884e+01    1.981826e+00
  2.859162e+01    2.005707e+00
  2.861440e+01    2.049558e+00
  2.863719e+01    2.007916e+00
  2.865997e+01    2.019161e+00
  2.868275e+01    2.084363e+00
  2.870554e+01    2.019624e+00
  2.872832e+01    2.012967e+00
  2.875110e+01    2.080316e+00
  2.877388e+01    2.023989e+00
  2.879667e+01    2.004127e+00
  2.881945e+01    2.001883e+00
  2.884223e+01    2.002831e+00
  2.886502e+01    2.085184e+00
  2.888780e+01    2.004164e+00
  2.891058e+01    2.033978e+00
  2.893336e+01    2.067428e+00
  2.895615e+01    2.006321e+00
  2.897893e+01    2.035316e+00
  2.900171e+01    2.037759e+00
  2.902450e+01    1.997066e+00
  2.904728e+01    2.001372e+00
  2.907006e+01    2.040786e+00
  2.909284e+01    2.044569e+00
  2.911563e+01    2.016223e+00
  2.913841e+01    2.037807e+00
  2.916119e+01    2.015753e+00
  2.918397e+01    2.062493e+00
  2.920676e+01    2.035005e+00
  2.922954e+01    2.039519e+00
  2.925232e+01    1.991502e+00
  2.927511e+01    2.020692e+00
  2.929789e+01    2.035295e+00
  2.932067e+01    2.044752e+00
  2.934345e+01    2.082830e+00
  2.936624e+01    2.049578e+00
  2.938902e+01    1.994846e+00
  2.941180e+01    2.015338e+00
  2.943459e+01    1.989724e+00
  2.945737e+01    2.011783e+00
  2.948015e+01    2.068809e+00
  2.950293e+01    2.026512e+00
  2.952572e+01    2.059543e+00
  2.954850e+01    2.102612e+00
  2.957128e+01    2.029516e+00
  2.959407e+01    2.058212e+00
  2.961685e+01    2.016764e+00
  2.963963e+01    1.960484e+00
  2.966241e+01    2.009264e+00
  2.968520e+01    2.078759e+00
  2.970798e+01    2.050334e+00
  2.973076e+01    2.036738e+00
  2.975354e+01    1.995340e+00
  2.977633e+01    1.984526e+00
  2.979911e+01    2.051128e+00
  2.982189e+01    1.992696e+00
  2.984468e+01    1.986294e+00
  2.986746e+01    1.974313e+00
  2.989024e+01    2.010878e+00
  2.991302e+01    2.036420e+00
  2.993581e+01    1.946449e+00
  2.995859e+01    1.979749e+00
  2.998137e+01    2.053472e+00
  3.000416e+01    2.013711e+00
  3.002694e+01    2.022936e+00
  3.004972e+01    1.994496e+00
  3.007250e+01    2.059118e+00
  3.009529e+01    2.045246e+00
  3.011807e+01    1.979140e+00
  3.014085e+01    2.034470e+00
  3.016363e+01    1.976723e+00
  3.018642e+01    2.004516e+00
  3.020920e+01    2.031956e+00
  3.023198e+01    1.934019e+00
  3.025477e+01    1.997363e+00
  3.027755e+01    1.980265e+00
  3.030033e+01    1.980634e+00
  3.032311e+01    2.025228e+00
  3.034590e+01    2.035029e+00
  3.036868e+01    2.001758e+00
  3.039146e+01    2.013524e+00
  3.041425e+01    2.001210e+00
  3.043703e+01    1.990922e+00
  3.045981e+01    1.971258e+00
  3.048259e+01    2.006212e+00
  3.050538e+01    2.040070e+00
  3.052816e+01    2.017992e+00
  3.055094e+01    1.980973e+00
  3.057373e+01    2.010199e+00
  3.059651e+01    1.939328e+00
  3.061929e+01    1.928021e+00
  3.064207e+01    1.967542e+00
  3.066486e+01    1.949792e+00
  3.068764e+01    2.049887e+00
  3.071042e+01    1.949467e+00
  3.073320e+01    1.946535e+00
  3.075599e+01    1.989310e+00
  3.077877e+01    2.038146e+00
  3.080155e+01    1.953792e+00
  3.082434e+01    1.989456e+00
  3.084712e+01    1.950719e+00
  3.086990e+01    2.033219e+00
  3.089268e+01    1.946332e+00
  3.091547e+01    1.978426e+00
  3.093825e+01    1.960649e+00
  3.096103e+01    1.959484e+00
  3.098382e+01    1.956434e+00
  3.100660e+01    2.036320e+00
  3.102938e+01    1.998096e+00
  3.105216e+01    1.970112e+00
  3.107495e+01    1.959603e+00
  3.109773e+01    1.993172e+00
  3.112051e+01    1.984639e+00
  3.114330e+01    2.005150e+00
  3.116608e+01    1.938884e+00
  3.118886e+01    1.931684e+00
  3.121164e+01    1.953980e+00
  3.123443e+01    2.007130e+00
  3.125721e+01    2.000190e+00
  3.127999e+01    1.997594e+00
  3.130277e+01    1.985314e+00
  3.132556e+01    2.028656e+00
  3.134834e+01    2.009412e+00
  3.137112e+01    2.000283e+00
  3.139391e+01    1.989963e+00
  3.141669e+01    2.011289e+00
  3.143947e+01    1.964742e+00
  3.146225e+01    1.985063e+00
  3.148504e+01    1.952889e+00
  3.150782e+01    1.987926e+00
  3.153060e+01    1.977718e+00
  3.155339e+01    1.947872e+00
  3.157617e+01    1.881786e+00
  3.159895e+01    1.892125e+00
  3.162173e+01    1.849831e+00
  3.164452e+01    1.954299e+00
  3.166730e+01    2.027555e+00
  3.169008e+01    1.958620e+00
  3.171286e+01    1.983659e+00
  3.173565e+01    1.939939e+00
  3.175843e+01    1.921343e+00
  3.178121e+01    1.885512e+00
  3.180400e+01    1.916513e+00
  3.182678e+01    1.858082e+00
  3.184956e+01    1.872952e+00
  3.187234e+01    1.975919e+00
  3.189513e+01    1.910937e+00
  3.191791e+01    1.882570e+00
  3.194069e+01    1.913181e+00
  3.196348e+01    1.896240e+00
  3.198626e+01    1.855026e+00
  3.200904e+01    1.930288e+00
  3.203182e+01    1.949679e+00
  3.205461e+01    1.937057e+00
  3.207739e+01    2.012525e+00
  3.210017e+01    1.820493e+00
  3.212296e+01    1.836317e+00
  3.214574e+01    1.800043e+00
  3.216852e+01    1.888495e+00
  3.219130e+01    1.867423e+00
  3.221409e+01    1.879171e+00
  3.223687e+01    1.882540e+00
  3.225965e+01    1.831985e+00
  3.228243e+01    1.805143e+00
  3.230522e+01    1.870914e+00
  3.232800e+01    1.915049e+00
  3.235078e+01    1.863143e+00
  3.237357e+01    1.814789e+00
  3.239635e+01    1.871138e+00
  3.241913e+01    1.949763e+00
  3.244191e+01    1.983362e+00
  3.246470e+01    1.898681e+00
  3.248748e+01    1.825799e+00
  3.251026e+01    1.757178e+00
  3.253305e+01    1.822690e+00
  3.255583e+01    1.830840e+00
  3.257861e+01    1.746835e+00
  3.260139e+01    1.812809e+00
  3.262418e+01    1.889505e+00
  3.264696e+01    1.833014e+00
  3.266974e+01    1.811070e+00
  3.269253e+01    1.609258e+00
  3.271531e+01    1.680491e+00
  3.273809e+01    1.771619e+00
  3.276087e+01    1.745259e+00
  3.278366e+01    1.796440e+00
  3.280644e+01    1.665516e+00
  3.282922e+01    1.710271e+00
  3.285200e+01    1.668562e+00
  3.287479e+01    1.692680e+00
  3.289757e+01    1.756419e+00
  3.292035e+01    1.851884e+00
  3.294314e+01    1.818822e+00
  3.296592e+01    1.746790e+00
  3.298870e+01    1.610536e+00
  3.301148e+01    1.728858e+00
  3.303427e+01    1.643846e+00
  3.305705e+01    1.704601e+00
  3.307983e+01    1.429203e+00
  3.310262e+01    1.705998e+00
  3.312540e+01    1.795319e+00
  3.314818e+01    1.832548e+00
  3.317096e+01    1.705078e+00
  3.319375e+01    1.794716e+00
  3.321653e+01    1.606713e+00
  3.323931e+01    1.798974e+00
  3.326209e+01    1.599844e+00
  3.328488e+01    1.600546e+00
  3.330766e+01    1.626321e+00
  3.333044e+01    1.622095e+00
  3.335323e+01    1.843707e+00
  3.337601e+01    1.528339e+00
  3.339879e+01    1.297269e+00
  3.342157e+01    1.925117e+00
  3.344436e+01    1.518810e+00
  3.346714e+01    1.815807e+00
  3.348992e+01    1.350006e+00
  3.351271e+01    4.473119e+00
  3.353549e+01    0.000000e+00
  3.355827e+01    0.000000e+00
  3.358105e+01    0.000000e+00
  3.360384e+01    0.000000e+00
  3.362662e+01    0.000000e+00
  3.364940e+01    0.000000e+00
  3.367219e+01    0.000000e+00
  3.369497e+01    0.000000e+00
  3.371775e+01    0.000000e+00
