# == pyFAI calibration ==
# Distance Sample to Detector: 0.21311058206280517 m
# PONI: 2.037e-01, 1.993e-01 m
# Rotations: -0.005459 0.000134 0.000000 rad
# 
# == Fit2d calibration ==
# Distance Sample-beamCenter: 213.114 mm
# Center: x=1002.134, y=1018.730 pix
# Tilt: 0.313 deg  TiltPlanRot: 1.411 deg
# 
# Detector Perkin detector	 PixelSize= 2.000e-04, 2.000e-04 m
#    Detector has a mask: False 
#    Detector has a dark current: False 
#    detector has a flat field: False 
# 
# Wavelength: 1.675e-11 m
# Mask applied: provided
# Dark current applied: False
# Flat field applied: False
# Polarization factor: None
# Normalization factor: 1.0
# --> data/chi_bkgsub_true/C_Tatania6-15.5-average.chi
#        q_A^-1             I 
  2.199784e-02    1.032533e+00
  4.478064e-02    1.402432e+00
  6.756343e-02    1.504952e+00
  9.034623e-02    1.517457e+00
  1.131290e-01    1.348425e+00
  1.359118e-01    1.599983e+00
  1.586946e-01    1.466365e+00
  1.814774e-01    1.234937e+00
  2.042602e-01    1.772365e+00
  2.270430e-01    2.648503e+00
  2.498258e-01    3.493260e+00
  2.726086e-01    6.909415e+00
  2.953914e-01    2.381236e+01
  3.181742e-01    6.020513e+01
  3.409570e-01    8.329791e+01
  3.637398e-01    6.178002e+01
  3.865226e-01    5.179591e+01
  4.093054e-01    5.095168e+01
  4.320881e-01    3.813812e+01
  4.548709e-01    2.079806e+01
  4.776537e-01    1.175431e+01
  5.004365e-01    9.460369e+00
  5.232193e-01    9.209367e+00
  5.460021e-01    9.995478e+00
  5.687849e-01    1.178820e+01
  5.915677e-01    1.245398e+01
  6.143505e-01    1.200935e+01
  6.371333e-01    1.204548e+01
  6.599161e-01    1.241956e+01
  6.826989e-01    1.207421e+01
  7.054817e-01    1.182978e+01
  7.282645e-01    1.094778e+01
  7.510473e-01    1.088098e+01
  7.738301e-01    1.042510e+01
  7.966129e-01    9.657429e+00
  8.193956e-01    9.628011e+00
  8.421784e-01    9.222665e+00
  8.649612e-01    8.815921e+00
  8.877440e-01    8.612815e+00
  9.105268e-01    8.154530e+00
  9.333096e-01    7.431128e+00
  9.560924e-01    6.766449e+00
  9.788752e-01    6.162988e+00
  1.001658e+00    6.314570e+00
  1.024441e+00    6.078977e+00
  1.047224e+00    5.176044e+00
  1.070006e+00    5.524071e+00
  1.092789e+00    5.703339e+00
  1.115572e+00    5.379184e+00
  1.138355e+00    4.727504e+00
  1.161138e+00    4.632823e+00
  1.183920e+00    5.201549e+00
  1.206703e+00    4.479667e+00
  1.229486e+00    4.068138e+00
  1.252269e+00    3.816878e+00
  1.275052e+00    3.296056e+00
  1.297834e+00    2.626450e+00
  1.320617e+00    2.699243e+00
  1.343400e+00    3.420327e+00
  1.366183e+00    2.834951e+00
  1.388966e+00    3.155030e+00
  1.411748e+00    3.331219e+00
  1.434531e+00    2.130310e+00
  1.457314e+00    1.233664e+00
  1.480097e+00    2.446992e+00
  1.502879e+00    1.450614e+00
  1.525662e+00    9.857338e-01
  1.548445e+00    1.338044e+00
  1.571228e+00    1.483192e+00
  1.594011e+00    1.441735e+00
  1.616793e+00    7.375728e-01
  1.639576e+00    1.550845e+00
  1.662359e+00    7.646664e+00
  1.685142e+00    2.127802e+01
  1.707925e+00    4.832822e+01
  1.730707e+00    9.681603e+01
  1.753490e+00    1.538386e+02
  1.776273e+00    1.886074e+02
  1.799056e+00    1.821462e+02
  1.821839e+00    1.364347e+02
  1.844621e+00    8.007327e+01
  1.867404e+00    3.914520e+01
  1.890187e+00    1.857828e+01
  1.912970e+00    6.512405e+00
  1.935753e+00    2.882725e+00
  1.958535e+00    1.401809e+00
  1.981318e+00    7.935747e-01
  2.004101e+00    5.102766e-01
  2.026884e+00    8.452907e-01
  2.049667e+00    8.137363e-01
  2.072449e+00    5.890808e-01
  2.095232e+00    1.739762e+00
  2.118015e+00    1.093127e+00
  2.140798e+00    4.272422e-01
  2.163581e+00    4.056668e-01
  2.186363e+00    1.260202e+00
  2.209146e+00    1.630477e+00
  2.231929e+00    1.842754e+00
  2.254712e+00    1.567440e+00
  2.277494e+00    6.381297e-01
  2.300277e+00    6.779063e-01
  2.323060e+00    1.032075e+00
  2.345843e+00    2.507613e+00
  2.368626e+00    2.522090e+00
  2.391408e+00    1.915070e+00
  2.414191e+00    1.915070e+00
  2.436974e+00    1.120645e+00
  2.459757e+00    8.982995e-01
  2.482540e+00    9.595795e-01
  2.505322e+00    5.004451e-01
  2.528105e+00    5.926769e-01
  2.550888e+00    3.185968e+00
  2.573671e+00    8.221519e+00
  2.596454e+00    1.515488e+01
  2.619236e+00    2.405076e+01
  2.642019e+00    3.075358e+01
  2.664802e+00    2.748645e+01
  2.687585e+00    1.823064e+01
  2.710368e+00    1.009208e+01
  2.733150e+00    5.425701e+00
  2.755933e+00    2.602604e+00
  2.778716e+00    1.470226e+00
  2.801499e+00    1.611146e+00
  2.824282e+00    2.301181e+00
  2.847064e+00    2.795451e+00
  2.869847e+00    1.163502e+00
  2.892630e+00    6.343801e-01
  2.915413e+00    6.643845e-01
  2.938196e+00    1.737511e+00
  2.960978e+00    1.864508e+00
  2.983761e+00    2.082288e+00
  3.006544e+00    2.746260e+00
  3.029327e+00    2.129636e+00
  3.052110e+00    1.733373e+00
  3.074892e+00    1.951610e+00
  3.097675e+00    0.000000e+00
  3.120458e+00    0.000000e+00
  3.143241e+00    4.013977e-01
  3.166023e+00    6.040650e-01
  3.188806e+00    1.011227e+00
  3.211589e+00    4.882233e+00
  3.234372e+00    1.136586e+01
  3.257155e+00    2.171285e+01
  3.279937e+00    3.733578e+01
  3.302720e+00    4.979666e+01
  3.325503e+00    4.933688e+01
  3.348286e+00    3.653988e+01
  3.371069e+00    2.056071e+01
  3.393851e+00    1.058217e+01
  3.416634e+00    4.685666e+00
  3.439417e+00    1.711764e+00
  3.462200e+00    1.020109e+00
  3.484983e+00    9.309044e-01
  3.507765e+00    8.221886e-01
  3.530548e+00    8.984472e-01
  3.553331e+00    8.820757e-01
  3.576114e+00    1.232754e+00
  3.598897e+00    3.907015e+00
  3.621679e+00    9.345179e+00
  3.644462e+00    1.894903e+01
  3.667245e+00    3.453177e+01
  3.690028e+00    5.053790e+01
  3.712811e+00    5.915047e+01
  3.735593e+00    5.909428e+01
  3.758376e+00    5.191122e+01
  3.781159e+00    3.988213e+01
  3.803942e+00    2.512673e+01
  3.826725e+00    1.313208e+01
  3.849507e+00    6.779808e+00
  3.872290e+00    3.242020e+00
  3.895073e+00    1.793638e+00
  3.917856e+00    3.494273e+00
  3.940638e+00    1.822741e+00
  3.963421e+00    1.080356e+00
  3.986204e+00    2.458836e+00
  4.008987e+00    2.114471e+00
  4.031770e+00    1.693158e+00
  4.054552e+00    1.070055e+00
  4.077335e+00    9.502185e-01
  4.100118e+00    7.873574e-01
  4.122901e+00    1.648271e+00
  4.145684e+00    1.664382e+00
  4.168466e+00    4.000424e+00
  4.191249e+00    8.300047e+00
  4.214032e+00    1.251598e+01
  4.236815e+00    1.558270e+01
  4.259598e+00    1.395150e+01
  4.282380e+00    9.325976e+00
  4.305163e+00    5.464758e+00
  4.327946e+00    2.625683e+00
  4.350729e+00    2.322718e+00
  4.373512e+00    3.176865e+00
  4.396294e+00    1.187424e+00
  4.419077e+00    1.077268e+00
  4.441860e+00    1.114252e+00
  4.464643e+00    2.818992e-01
  4.487426e+00    2.489597e-01
  4.510208e+00    5.429382e-01
  4.532991e+00    1.329956e+00
  4.555774e+00    1.477478e+00
  4.578557e+00    2.405802e+00
  4.601340e+00    2.478350e+00
  4.624122e+00    2.158991e+00
  4.646905e+00    2.272891e+00
  4.669688e+00    2.382278e+00
  4.692471e+00    1.978014e+00
  4.715253e+00    1.902671e+00
  4.738036e+00    1.285183e+00
  4.760819e+00    4.089714e-01
  4.783602e+00    5.117569e-01
  4.806385e+00    1.475769e+00
  4.829167e+00    1.718876e+00
  4.851950e+00    1.475662e+00
  4.874733e+00    7.026092e-01
  4.897516e+00    2.109767e+00
  4.920299e+00    3.474531e+00
  4.943081e+00    4.375839e+00
  4.965864e+00    4.734219e+00
  4.988647e+00    4.177372e+00
  5.011430e+00    3.110937e+00
  5.034213e+00    2.437554e+00
  5.056995e+00    1.200922e+00
  5.079778e+00    1.760996e+00
  5.102561e+00    2.835567e+00
  5.125344e+00    8.746136e-01
  5.148127e+00    9.326839e-01
  5.170909e+00    9.673323e-01
  5.193692e+00    1.196126e-01
  5.216475e+00    1.862626e+00
  5.239258e+00    2.294744e+00
  5.262041e+00    2.891762e+00
  5.284823e+00    1.502008e+00
  5.307606e+00    5.835140e-01
  5.330389e+00    1.978794e+00
  5.353172e+00    1.610235e+00
  5.375955e+00    1.245862e+00
  5.398737e+00    1.046737e+00
  5.421520e+00    1.130628e+00
  5.444303e+00    1.848446e+00
  5.467086e+00    1.823978e+00
  5.489869e+00    2.149031e+00
  5.512651e+00    2.720952e+00
  5.535434e+00    1.354946e+00
  5.558217e+00    1.852316e+00
  5.581000e+00    2.622780e+00
  5.603782e+00    1.193976e+00
  5.626565e+00    9.208761e-01
  5.649348e+00    9.050046e-01
  5.672131e+00    1.005012e+00
  5.694914e+00    1.015229e+00
  5.717696e+00    9.951172e-01
  5.740479e+00    1.653608e+00
  5.763262e+00    1.391929e+00
  5.786045e+00    9.958016e-01
  5.808828e+00    8.847660e-01
  5.831610e+00    8.257315e-01
  5.854393e+00    5.749316e-01
  5.877176e+00    1.128730e+00
  5.899959e+00    1.130388e+00
  5.922742e+00    1.040999e+00
  5.945524e+00    1.257308e+00
  5.968307e+00    1.434875e+00
  5.991090e+00    1.654681e+00
  6.013873e+00    1.525357e+00
  6.036656e+00    1.215387e+00
  6.059438e+00    1.151895e+00
  6.082221e+00    1.369641e+00
  6.105004e+00    1.472619e+00
  6.127787e+00    1.302108e+00
  6.150570e+00    1.915905e+00
  6.173352e+00    1.593053e+00
  6.196135e+00    9.907240e-01
  6.218918e+00    8.155276e-01
  6.241701e+00    8.807786e-01
  6.264484e+00    1.040763e+00
  6.287266e+00    1.561667e+00
  6.310049e+00    1.382625e+00
  6.332832e+00    1.156387e+00
  6.355615e+00    6.201721e-01
  6.378397e+00    7.299500e-01
  6.401180e+00    1.080478e+00
  6.423963e+00    2.085434e+00
  6.446746e+00    1.866374e+00
  6.469529e+00    8.658623e-01
  6.492311e+00    1.313790e+00
  6.515094e+00    1.512764e+00
  6.537877e+00    6.365545e-01
  6.560660e+00    1.408102e+00
  6.583443e+00    1.449425e+00
  6.606225e+00    1.466799e+00
  6.629008e+00    1.395923e+00
  6.651791e+00    1.341218e+00
  6.674574e+00    1.131899e+00
  6.697357e+00    1.528998e+00
  6.720139e+00    1.326918e+00
  6.742922e+00    1.016965e+00
  6.765705e+00    1.044571e+00
  6.788488e+00    1.411774e+00
  6.811271e+00    1.614332e+00
  6.834053e+00    1.928182e+00
  6.856836e+00    1.982383e+00
  6.879619e+00    1.802984e+00
  6.902402e+00    1.557154e+00
  6.925185e+00    1.570289e+00
  6.947967e+00    2.138115e+00
  6.970750e+00    2.637225e+00
  6.993533e+00    3.186079e+00
  7.016316e+00    3.285468e+00
  7.039099e+00    2.811754e+00
  7.061881e+00    2.462738e+00
  7.084664e+00    2.321635e+00
  7.107447e+00    2.127133e+00
  7.130230e+00    1.994409e+00
  7.153013e+00    2.143118e+00
  7.175795e+00    1.887967e+00
  7.198578e+00    1.417244e+00
  7.221361e+00    1.194320e+00
  7.244144e+00    1.120080e+00
  7.266926e+00    1.221671e+00
  7.289709e+00    9.027782e-01
  7.312492e+00    1.111578e+00
  7.335275e+00    1.151670e+00
  7.358058e+00    9.568925e-01
  7.380840e+00    1.287750e+00
  7.403623e+00    1.383372e+00
  7.426406e+00    1.766489e+00
  7.449189e+00    1.731756e+00
  7.471972e+00    1.425305e+00
  7.494754e+00    1.343859e+00
  7.517537e+00    1.419052e+00
  7.540320e+00    1.601538e+00
  7.563103e+00    1.674928e+00
  7.585886e+00    1.481261e+00
  7.608668e+00    1.670052e+00
  7.631451e+00    1.231511e+00
  7.654234e+00    8.654380e-01
  7.677017e+00    1.316707e+00
  7.699800e+00    1.594788e+00
  7.722582e+00    1.097618e+00
  7.745365e+00    1.185138e+00
  7.768148e+00    1.155569e+00
  7.790931e+00    1.347498e+00
  7.813714e+00    1.378294e+00
  7.836496e+00    1.195094e+00
  7.859279e+00    1.527221e+00
  7.882062e+00    1.583058e+00
  7.904845e+00    1.275136e+00
  7.927628e+00    9.927417e-01
  7.950410e+00    1.373509e+00
  7.973193e+00    1.425310e+00
  7.995976e+00    1.517955e+00
  8.018759e+00    1.991503e+00
  8.041541e+00    8.410917e+00
  8.064324e+00    2.088886e+01
  8.087107e+00    6.068151e+00
  8.109890e+00    1.125263e+00
  8.132673e+00    1.023685e+00
  8.155455e+00    7.315196e-01
  8.178238e+00    1.508722e+00
  8.201021e+00    1.343732e+00
  8.223804e+00    8.176341e-01
  8.246587e+00    2.564767e+00
  8.269369e+00    2.552737e+00
  8.292152e+00    1.593740e+00
  8.314935e+00    1.585682e+00
  8.337718e+00    8.762404e-01
  8.360501e+00    1.349921e+00
  8.383283e+00    1.252610e+00
  8.406066e+00    1.479041e+00
  8.428849e+00    1.671572e+00
  8.451632e+00    1.737658e+00
  8.474415e+00    1.430959e+00
  8.497197e+00    1.084242e+00
  8.519980e+00    1.274809e+00
  8.542763e+00    1.100547e+00
  8.565546e+00    1.057411e+00
  8.588329e+00    1.249431e+00
  8.611111e+00    1.595177e+00
  8.633894e+00    1.429243e+00
  8.656677e+00    7.156287e-01
  8.679460e+00    7.859887e-01
  8.702243e+00    1.451593e+00
  8.725025e+00    1.990765e+00
  8.747808e+00    8.025333e-01
  8.770591e+00    9.389611e-01
  8.793374e+00    1.305144e+00
  8.816156e+00    2.051245e+00
  8.838939e+00    1.235776e+00
  8.861722e+00    1.278489e+00
  8.884505e+00    1.469829e+00
  8.907288e+00    1.653224e+00
  8.930070e+00    1.006650e+00
  8.952853e+00    1.197451e+00
  8.975636e+00    1.205421e+00
  8.998419e+00    1.046759e+00
  9.021202e+00    7.249181e-01
  9.043984e+00    6.239944e-01
  9.066767e+00    5.702242e-01
  9.089550e+00    9.966861e-01
  9.112333e+00    1.655444e+00
  9.135116e+00    1.252130e+00
  9.157898e+00    1.262942e+00
  9.180681e+00    1.501941e+00
  9.203464e+00    1.493932e+00
  9.226247e+00    1.585096e+00
  9.249030e+00    1.192641e+00
  9.271812e+00    1.001964e+00
  9.294595e+00    1.638712e+00
  9.317378e+00    1.363925e+00
  9.340161e+00    8.466290e-01
  9.362944e+00    1.340972e+00
  9.385726e+00    1.566641e+00
  9.408509e+00    1.111886e+00
  9.431292e+00    1.826589e+00
  9.454075e+00    1.307957e+00
  9.476858e+00    1.202821e+00
  9.499640e+00    1.243110e+00
  9.522423e+00    1.004298e+00
  9.545206e+00    1.193082e+00
  9.567989e+00    1.384728e+00
  9.590772e+00    1.313210e+00
  9.613554e+00    1.277889e+00
  9.636337e+00    7.575913e-01
  9.659120e+00    1.190780e+00
  9.681903e+00    1.344550e+00
  9.704685e+00    7.849827e-01
  9.727468e+00    7.309435e-01
  9.750251e+00    1.031354e+00
  9.773034e+00    9.175939e-01
  9.795817e+00    8.602763e-01
  9.818599e+00    1.248315e+00
  9.841382e+00    1.517658e+00
  9.864165e+00    1.150191e+00
  9.886948e+00    8.671682e-01
  9.909731e+00    9.649568e-01
  9.932513e+00    1.494836e+00
  9.955296e+00    1.559543e+00
  9.978079e+00    1.462534e+00
  1.000086e+01    1.367385e+00
  1.002364e+01    1.334816e+00
  1.004643e+01    1.477622e+00
  1.006921e+01    1.426729e+00
  1.009199e+01    1.130798e+00
  1.011478e+01    9.253830e-01
  1.013756e+01    1.047627e+00
  1.016034e+01    1.041595e+00
  1.018312e+01    1.009121e+00
  1.020591e+01    1.182792e+00
  1.022869e+01    1.129063e+00
  1.025147e+01    1.118830e+00
  1.027426e+01    9.865288e-01
  1.029704e+01    1.074724e+00
  1.031982e+01    1.216342e+00
  1.034260e+01    1.078977e+00
  1.036539e+01    1.218350e+00
  1.038817e+01    1.342384e+00
  1.041095e+01    1.538450e+00
  1.043373e+01    1.246376e+00
  1.045652e+01    1.258343e+00
  1.047930e+01    1.243176e+00
  1.050208e+01    1.188763e+00
  1.052487e+01    1.342727e+00
  1.054765e+01    1.489632e+00
  1.057043e+01    1.498047e+00
  1.059321e+01    1.605175e+00
  1.061600e+01    1.772549e+00
  1.063878e+01    1.801207e+00
  1.066156e+01    1.606293e+00
  1.068435e+01    1.612054e+00
  1.070713e+01    1.741289e+00
  1.072991e+01    1.742079e+00
  1.075269e+01    1.617424e+00
  1.077548e+01    1.416897e+00
  1.079826e+01    1.476854e+00
  1.082104e+01    1.408477e+00
  1.084383e+01    1.593587e+00
  1.086661e+01    1.490559e+00
  1.088939e+01    1.429657e+00
  1.091217e+01    1.205838e+00
  1.093496e+01    1.365259e+00
  1.095774e+01    1.310434e+00
  1.098052e+01    1.284422e+00
  1.100330e+01    1.024091e+00
  1.102609e+01    1.082366e+00
  1.104887e+01    9.677188e-01
  1.107165e+01    1.210042e+00
  1.109444e+01    1.305539e+00
  1.111722e+01    1.155210e+00
  1.114000e+01    1.414561e+00
  1.116278e+01    1.677455e+00
  1.118557e+01    1.688236e+00
  1.120835e+01    1.473809e+00
  1.123113e+01    9.207780e-01
  1.125392e+01    9.723365e-01
  1.127670e+01    1.033634e+00
  1.129948e+01    1.129732e+00
  1.132226e+01    1.216367e+00
  1.134505e+01    1.364122e+00
  1.136783e+01    9.681337e-01
  1.139061e+01    1.137754e+00
  1.141340e+01    1.069192e+00
  1.143618e+01    1.355684e+00
  1.145896e+01    1.278930e+00
  1.148174e+01    1.116725e+00
  1.150453e+01    1.155163e+00
  1.152731e+01    1.216707e+00
  1.155009e+01    1.182417e+00
  1.157287e+01    1.389548e+00
  1.159566e+01    1.435563e+00
  1.161844e+01    1.329989e+00
  1.164122e+01    1.231694e+00
  1.166401e+01    1.369710e+00
  1.168679e+01    1.589976e+00
  1.170957e+01    1.572241e+00
  1.173235e+01    1.582237e+00
  1.175514e+01    1.486924e+00
  1.177792e+01    1.509579e+00
  1.180070e+01    1.494633e+00
  1.182349e+01    1.267444e+00
  1.184627e+01    1.288640e+00
  1.186905e+01    1.386036e+00
  1.189183e+01    1.260052e+00
  1.191462e+01    1.340593e+00
  1.193740e+01    1.338144e+00
  1.196018e+01    1.430572e+00
  1.198296e+01    1.614024e+00
  1.200575e+01    1.248673e+00
  1.202853e+01    1.237123e+00
  1.205131e+01    1.352322e+00
  1.207410e+01    1.540150e+00
  1.209688e+01    1.502604e+00
  1.211966e+01    1.495633e+00
  1.214244e+01    1.330541e+00
  1.216523e+01    1.256829e+00
  1.218801e+01    1.343210e+00
  1.221079e+01    1.319041e+00
  1.223358e+01    1.232521e+00
  1.225636e+01    1.236188e+00
  1.227914e+01    1.205023e+00
  1.230192e+01    1.269326e+00
  1.232471e+01    1.240467e+00
  1.234749e+01    1.323882e+00
  1.237027e+01    1.155113e+00
  1.239306e+01    1.142359e+00
  1.241584e+01    1.444201e+00
  1.243862e+01    1.495015e+00
  1.246140e+01    1.699910e+00
  1.248419e+01    1.504051e+00
  1.250697e+01    1.341092e+00
  1.252975e+01    1.282874e+00
  1.255253e+01    1.289855e+00
  1.257532e+01    1.421575e+00
  1.259810e+01    1.539450e+00
  1.262088e+01    1.410459e+00
  1.264367e+01    1.317391e+00
  1.266645e+01    1.184245e+00
  1.268923e+01    1.141183e+00
  1.271201e+01    1.401501e+00
  1.273480e+01    1.130908e+00
  1.275758e+01    1.079740e+00
  1.278036e+01    1.244080e+00
  1.280315e+01    1.276215e+00
  1.282593e+01    1.348989e+00
  1.284871e+01    1.362837e+00
  1.287149e+01    1.366487e+00
  1.289428e+01    1.386225e+00
  1.291706e+01    1.408327e+00
  1.293984e+01    1.132026e+00
  1.296263e+01    1.123423e+00
  1.298541e+01    1.172060e+00
  1.300819e+01    1.173833e+00
  1.303097e+01    1.131067e+00
  1.305376e+01    1.117217e+00
  1.307654e+01    1.041843e+00
  1.309932e+01    1.158813e+00
  1.312210e+01    1.426494e+00
  1.314489e+01    1.296221e+00
  1.316767e+01    1.341863e+00
  1.319045e+01    1.358872e+00
  1.321324e+01    1.418832e+00
  1.323602e+01    1.136902e+00
  1.325880e+01    1.140364e+00
  1.328158e+01    1.325178e+00
  1.330437e+01    1.526469e+00
  1.332715e+01    1.247315e+00
  1.334993e+01    1.206204e+00
  1.337272e+01    1.304116e+00
  1.339550e+01    1.334330e+00
  1.341828e+01    1.212969e+00
  1.344106e+01    1.218604e+00
  1.346385e+01    1.338855e+00
  1.348663e+01    1.269348e+00
  1.350941e+01    1.318915e+00
  1.353219e+01    1.354787e+00
  1.355498e+01    1.387643e+00
  1.357776e+01    1.324149e+00
  1.360054e+01    1.345776e+00
  1.362333e+01    1.353705e+00
  1.364611e+01    1.364750e+00
  1.366889e+01    1.332041e+00
  1.369167e+01    1.427186e+00
  1.371446e+01    1.418908e+00
  1.373724e+01    1.383879e+00
  1.376002e+01    1.315072e+00
  1.378281e+01    1.299161e+00
  1.380559e+01    1.263295e+00
  1.382837e+01    1.184064e+00
  1.385115e+01    1.228422e+00
  1.387394e+01    1.246930e+00
  1.389672e+01    1.291939e+00
  1.391950e+01    1.309709e+00
  1.394229e+01    1.283547e+00
  1.396507e+01    1.301314e+00
  1.398785e+01    1.220564e+00
  1.401063e+01    1.451975e+00
  1.403342e+01    1.363156e+00
  1.405620e+01    1.285966e+00
  1.407898e+01    1.197333e+00
  1.410176e+01    1.305570e+00
  1.412455e+01    1.354354e+00
  1.414733e+01    1.240508e+00
  1.417011e+01    1.175973e+00
  1.419290e+01    1.191016e+00
  1.421568e+01    1.280001e+00
  1.423846e+01    1.385989e+00
  1.426124e+01    1.336570e+00
  1.428403e+01    1.539573e+00
  1.430681e+01    1.417848e+00
  1.432959e+01    1.324133e+00
  1.435238e+01    1.536405e+00
  1.437516e+01    1.469861e+00
  1.439794e+01    1.482762e+00
  1.442072e+01    1.462752e+00
  1.444351e+01    1.465054e+00
  1.446629e+01    1.379705e+00
  1.448907e+01    1.518891e+00
  1.451186e+01    1.375708e+00
  1.453464e+01    1.541448e+00
  1.455742e+01    1.390423e+00
  1.458020e+01    1.396201e+00
  1.460299e+01    1.466187e+00
  1.462577e+01    1.293777e+00
  1.464855e+01    1.276007e+00
  1.467133e+01    1.469026e+00
  1.469412e+01    1.464658e+00
  1.471690e+01    1.557619e+00
  1.473968e+01    1.457386e+00
  1.476247e+01    1.395692e+00
  1.478525e+01    1.498697e+00
  1.480803e+01    1.544783e+00
  1.483081e+01    1.541993e+00
  1.485360e+01    1.526524e+00
  1.487638e+01    1.315355e+00
  1.489916e+01    1.333293e+00
  1.492195e+01    1.469488e+00
  1.494473e+01    1.486937e+00
  1.496751e+01    1.425391e+00
  1.499029e+01    1.502251e+00
  1.501308e+01    1.484009e+00
  1.503586e+01    1.379036e+00
  1.505864e+01    1.368519e+00
  1.508142e+01    1.380346e+00
  1.510421e+01    1.323017e+00
  1.512699e+01    1.390653e+00
  1.514977e+01    1.473826e+00
  1.517256e+01    1.345383e+00
  1.519534e+01    1.469241e+00
  1.521812e+01    1.464345e+00
  1.524090e+01    1.194705e+00
  1.526369e+01    1.291907e+00
  1.528647e+01    1.413014e+00
  1.530925e+01    1.401666e+00
  1.533204e+01    1.405745e+00
  1.535482e+01    1.258244e+00
  1.537760e+01    1.395599e+00
  1.540038e+01    1.442497e+00
  1.542317e+01    1.363231e+00
  1.544595e+01    1.338024e+00
  1.546873e+01    1.441188e+00
  1.549152e+01    1.269667e+00
  1.551430e+01    1.379025e+00
  1.553708e+01    1.427413e+00
  1.555986e+01    1.323862e+00
  1.558265e+01    1.251617e+00
  1.560543e+01    1.397761e+00
  1.562821e+01    1.555165e+00
  1.565099e+01    1.460970e+00
  1.567378e+01    1.309973e+00
  1.569656e+01    1.370528e+00
  1.571934e+01    1.385883e+00
  1.574213e+01    1.263882e+00
  1.576491e+01    1.398575e+00
  1.578769e+01    1.398178e+00
  1.581047e+01    1.423957e+00
  1.583326e+01    1.433516e+00
  1.585604e+01    1.389673e+00
  1.587882e+01    1.481083e+00
  1.590161e+01    1.395122e+00
  1.592439e+01    1.387046e+00
  1.594717e+01    1.501466e+00
  1.596995e+01    1.583369e+00
  1.599274e+01    1.464158e+00
  1.601552e+01    1.363904e+00
  1.603830e+01    1.353506e+00
  1.606109e+01    1.475485e+00
  1.608387e+01    1.410971e+00
  1.610665e+01    1.355717e+00
  1.612943e+01    1.394471e+00
  1.615222e+01    1.324448e+00
  1.617500e+01    1.345260e+00
  1.619778e+01    1.358633e+00
  1.622056e+01    1.370867e+00
  1.624335e+01    1.317079e+00
  1.626613e+01    1.298682e+00
  1.628891e+01    1.517101e+00
  1.631170e+01    1.439576e+00
  1.633448e+01    1.457896e+00
  1.635726e+01    1.315344e+00
  1.638004e+01    1.276480e+00
  1.640283e+01    1.247692e+00
  1.642561e+01    1.280526e+00
  1.644839e+01    1.219911e+00
  1.647118e+01    1.327685e+00
  1.649396e+01    1.259090e+00
  1.651674e+01    1.392066e+00
  1.653952e+01    1.372037e+00
  1.656231e+01    1.356722e+00
  1.658509e+01    1.277076e+00
  1.660787e+01    1.347778e+00
  1.663065e+01    1.412019e+00
  1.665344e+01    1.419328e+00
  1.667622e+01    1.366524e+00
  1.669900e+01    1.467435e+00
  1.672179e+01    1.420653e+00
  1.674457e+01    1.465004e+00
  1.676735e+01    1.280515e+00
  1.679013e+01    1.434996e+00
  1.681292e+01    1.441038e+00
  1.683570e+01    1.299196e+00
  1.685848e+01    1.303319e+00
  1.688127e+01    1.293606e+00
  1.690405e+01    1.230011e+00
  1.692683e+01    1.304085e+00
  1.694961e+01    1.182605e+00
  1.697240e+01    1.198704e+00
  1.699518e+01    1.456182e+00
  1.701796e+01    1.369772e+00
  1.704075e+01    1.419269e+00
  1.706353e+01    1.330725e+00
  1.708631e+01    1.297511e+00
  1.710909e+01    1.328090e+00
  1.713188e+01    1.379220e+00
  1.715466e+01    1.369339e+00
  1.717744e+01    1.344391e+00
  1.720022e+01    1.309106e+00
  1.722301e+01    1.276714e+00
  1.724579e+01    1.417183e+00
  1.726857e+01    1.268242e+00
  1.729136e+01    1.192302e+00
  1.731414e+01    1.403975e+00
  1.733692e+01    1.401958e+00
  1.735970e+01    1.373859e+00
  1.738249e+01    1.355257e+00
  1.740527e+01    1.339819e+00
  1.742805e+01    1.425083e+00
  1.745084e+01    1.574672e+00
  1.747362e+01    1.444661e+00
  1.749640e+01    1.416034e+00
  1.751918e+01    1.335397e+00
  1.754197e+01    1.428525e+00
  1.756475e+01    1.361036e+00
  1.758753e+01    1.425153e+00
  1.761032e+01    1.338472e+00
  1.763310e+01    1.377562e+00
  1.765588e+01    1.343657e+00
  1.767866e+01    1.407012e+00
  1.770145e+01    1.405048e+00
  1.772423e+01    1.258008e+00
  1.774701e+01    1.405053e+00
  1.776979e+01    1.353847e+00
  1.779258e+01    1.285262e+00
  1.781536e+01    1.370000e+00
  1.783814e+01    1.418792e+00
  1.786093e+01    1.396272e+00
  1.788371e+01    1.330307e+00
  1.790649e+01    1.386456e+00
  1.792927e+01    1.367861e+00
  1.795206e+01    1.257035e+00
  1.797484e+01    1.240673e+00
  1.799762e+01    1.334833e+00
  1.802041e+01    1.229379e+00
  1.804319e+01    1.302563e+00
  1.806597e+01    1.188440e+00
  1.808875e+01    1.318494e+00
  1.811154e+01    1.406696e+00
  1.813432e+01    1.382872e+00
  1.815710e+01    1.546054e+00
  1.817989e+01    1.408746e+00
  1.820267e+01    1.475205e+00
  1.822545e+01    1.487538e+00
  1.824823e+01    1.314301e+00
  1.827102e+01    1.341138e+00
  1.829380e+01    1.347584e+00
  1.831658e+01    1.418724e+00
  1.833936e+01    1.380265e+00
  1.836215e+01    1.475209e+00
  1.838493e+01    1.480335e+00
  1.840771e+01    1.349106e+00
  1.843050e+01    1.397502e+00
  1.845328e+01    1.369236e+00
  1.847606e+01    1.411045e+00
  1.849884e+01    1.445990e+00
  1.852163e+01    1.229019e+00
  1.854441e+01    1.231732e+00
  1.856719e+01    1.247540e+00
  1.858998e+01    1.367701e+00
  1.861276e+01    1.407862e+00
  1.863554e+01    1.394655e+00
  1.865832e+01    1.304140e+00
  1.868111e+01    1.389193e+00
  1.870389e+01    1.365045e+00
  1.872667e+01    1.306000e+00
  1.874945e+01    1.234159e+00
  1.877224e+01    1.333027e+00
  1.879502e+01    1.290249e+00
  1.881780e+01    1.186016e+00
  1.884059e+01    1.185881e+00
  1.886337e+01    1.396497e+00
  1.888615e+01    1.318692e+00
  1.890893e+01    1.247717e+00
  1.893172e+01    1.140169e+00
  1.895450e+01    1.254150e+00
  1.897728e+01    1.316388e+00
  1.900007e+01    1.338181e+00
  1.902285e+01    1.306752e+00
  1.904563e+01    1.271334e+00
  1.906841e+01    1.239237e+00
  1.909120e+01    1.363886e+00
  1.911398e+01    1.379027e+00
  1.913676e+01    1.237456e+00
  1.915955e+01    1.329024e+00
  1.918233e+01    1.285466e+00
  1.920511e+01    1.231136e+00
  1.922789e+01    1.364571e+00
  1.925068e+01    1.347845e+00
  1.927346e+01    1.286059e+00
  1.929624e+01    1.458883e+00
  1.931902e+01    1.367600e+00
  1.934181e+01    1.343646e+00
  1.936459e+01    1.265928e+00
  1.938737e+01    1.413837e+00
  1.941016e+01    1.370847e+00
  1.943294e+01    1.359503e+00
  1.945572e+01    1.383459e+00
  1.947850e+01    1.277702e+00
  1.950129e+01    1.202255e+00
  1.952407e+01    1.309901e+00
  1.954685e+01    1.248316e+00
  1.956964e+01    1.338904e+00
  1.959242e+01    1.333011e+00
  1.961520e+01    1.231996e+00
  1.963798e+01    1.247158e+00
  1.966077e+01    1.333939e+00
  1.968355e+01    1.349154e+00
  1.970633e+01    1.230547e+00
  1.972912e+01    1.318354e+00
  1.975190e+01    1.294709e+00
  1.977468e+01    1.262480e+00
  1.979746e+01    1.320921e+00
  1.982025e+01    1.376320e+00
  1.984303e+01    1.408250e+00
  1.986581e+01    1.403960e+00
  1.988859e+01    1.348706e+00
  1.991138e+01    1.255288e+00
  1.993416e+01    1.271823e+00
  1.995694e+01    1.286547e+00
  1.997973e+01    1.258506e+00
  2.000251e+01    1.209566e+00
  2.002529e+01    1.247457e+00
  2.004807e+01    1.217090e+00
  2.007086e+01    1.387582e+00
  2.009364e+01    1.335387e+00
  2.011642e+01    1.276912e+00
  2.013921e+01    1.318479e+00
  2.016199e+01    1.357300e+00
  2.018477e+01    1.295752e+00
  2.020755e+01    1.227506e+00
  2.023034e+01    1.323404e+00
  2.025312e+01    1.311800e+00
  2.027590e+01    1.386504e+00
  2.029868e+01    1.426728e+00
  2.032147e+01    1.354778e+00
  2.034425e+01    1.235990e+00
  2.036703e+01    1.229851e+00
  2.038982e+01    1.383226e+00
  2.041260e+01    1.193009e+00
  2.043538e+01    1.269459e+00
  2.045816e+01    1.271789e+00
  2.048095e+01    1.304821e+00
  2.050373e+01    1.433026e+00
  2.052651e+01    1.293430e+00
  2.054930e+01    1.205829e+00
  2.057208e+01    1.316177e+00
  2.059486e+01    1.291639e+00
  2.061764e+01    1.321663e+00
  2.064043e+01    1.302578e+00
  2.066321e+01    1.232192e+00
  2.068599e+01    1.235211e+00
  2.070878e+01    1.246688e+00
  2.073156e+01    1.212744e+00
  2.075434e+01    1.252039e+00
  2.077712e+01    1.257266e+00
  2.079991e+01    1.254628e+00
  2.082269e+01    1.206722e+00
  2.084547e+01    1.318255e+00
  2.086825e+01    1.368997e+00
  2.089104e+01    1.288352e+00
  2.091382e+01    1.324673e+00
  2.093660e+01    1.390127e+00
  2.095939e+01    1.283988e+00
  2.098217e+01    1.286618e+00
  2.100495e+01    1.309202e+00
  2.102773e+01    1.270477e+00
  2.105052e+01    1.187208e+00
  2.107330e+01    1.300483e+00
  2.109608e+01    1.245637e+00
  2.111887e+01    1.250110e+00
  2.114165e+01    1.173389e+00
  2.116443e+01    1.129092e+00
  2.118721e+01    1.167031e+00
  2.121000e+01    1.257483e+00
  2.123278e+01    1.271889e+00
  2.125556e+01    1.295253e+00
  2.127835e+01    1.325124e+00
  2.130113e+01    1.375022e+00
  2.132391e+01    1.216913e+00
  2.134669e+01    1.265027e+00
  2.136948e+01    1.258893e+00
  2.139226e+01    1.256045e+00
  2.141504e+01    1.334467e+00
  2.143782e+01    1.260207e+00
  2.146061e+01    1.196481e+00
  2.148339e+01    1.195217e+00
  2.150617e+01    1.128028e+00
  2.152896e+01    1.158303e+00
  2.155174e+01    1.184139e+00
  2.157452e+01    1.298279e+00
  2.159730e+01    1.242994e+00
  2.162009e+01    1.286825e+00
  2.164287e+01    1.203945e+00
  2.166565e+01    1.240595e+00
  2.168844e+01    1.307697e+00
  2.171122e+01    1.116815e+00
  2.173400e+01    1.084391e+00
  2.175678e+01    1.260134e+00
  2.177957e+01    1.311577e+00
  2.180235e+01    1.240591e+00
  2.182513e+01    1.168378e+00
  2.184791e+01    1.171926e+00
  2.187070e+01    1.173080e+00
  2.189348e+01    1.193578e+00
  2.191626e+01    1.242683e+00
  2.193905e+01    1.148734e+00
  2.196183e+01    1.163710e+00
  2.198461e+01    1.166957e+00
  2.200739e+01    1.224834e+00
  2.203018e+01    1.302029e+00
  2.205296e+01    1.274430e+00
  2.207574e+01    1.218477e+00
  2.209853e+01    1.294378e+00
  2.212131e+01    1.282143e+00
  2.214409e+01    1.272667e+00
  2.216687e+01    1.227907e+00
  2.218966e+01    1.207293e+00
  2.221244e+01    1.193425e+00
  2.223522e+01    1.210659e+00
  2.225801e+01    1.211759e+00
  2.228079e+01    1.194737e+00
  2.230357e+01    1.221187e+00
  2.232635e+01    1.194943e+00
  2.234914e+01    1.159573e+00
  2.237192e+01    1.218698e+00
  2.239470e+01    1.215264e+00
  2.241748e+01    1.243355e+00
  2.244027e+01    1.331718e+00
  2.246305e+01    1.262194e+00
  2.248583e+01    1.213618e+00
  2.250862e+01    1.234962e+00
  2.253140e+01    1.250858e+00
  2.255418e+01    1.188666e+00
  2.257696e+01    1.232267e+00
  2.259975e+01    1.373718e+00
  2.262253e+01    1.243870e+00
  2.264531e+01    1.242725e+00
  2.266810e+01    1.201059e+00
  2.269088e+01    1.236923e+00
  2.271366e+01    1.215214e+00
  2.273644e+01    1.154447e+00
  2.275923e+01    1.196119e+00
  2.278201e+01    1.244284e+00
  2.280479e+01    1.125627e+00
  2.282758e+01    1.131468e+00
  2.285036e+01    1.097980e+00
  2.287314e+01    1.204635e+00
  2.289592e+01    1.242184e+00
  2.291871e+01    1.185686e+00
  2.294149e+01    1.293436e+00
  2.296427e+01    1.275900e+00
  2.298705e+01    1.173851e+00
  2.300984e+01    1.176545e+00
  2.303262e+01    1.249764e+00
  2.305540e+01    1.224866e+00
  2.307819e+01    1.226173e+00
  2.310097e+01    1.083656e+00
  2.312375e+01    1.169531e+00
  2.314653e+01    1.185250e+00
  2.316932e+01    1.182922e+00
  2.319210e+01    1.250280e+00
  2.321488e+01    1.240269e+00
  2.323767e+01    1.255461e+00
  2.326045e+01    1.236486e+00
  2.328323e+01    1.260412e+00
  2.330601e+01    1.248412e+00
  2.332880e+01    1.235675e+00
  2.335158e+01    1.274552e+00
  2.337436e+01    1.191861e+00
  2.339714e+01    1.261571e+00
  2.341993e+01    1.227460e+00
  2.344271e+01    1.245570e+00
  2.346549e+01    1.253155e+00
  2.348828e+01    1.246872e+00
  2.351106e+01    1.264258e+00
  2.353384e+01    1.303445e+00
  2.355662e+01    1.288685e+00
  2.357941e+01    1.344728e+00
  2.360219e+01    1.198538e+00
  2.362497e+01    1.360877e+00
  2.364776e+01    1.319082e+00
  2.367054e+01    1.196853e+00
  2.369332e+01    1.158538e+00
  2.371610e+01    1.178127e+00
  2.373889e+01    1.293860e+00
  2.376167e+01    1.131719e+00
  2.378445e+01    1.189502e+00
  2.380724e+01    1.235809e+00
  2.383002e+01    1.261361e+00
  2.385280e+01    1.164735e+00
  2.387558e+01    1.180272e+00
  2.389837e+01    1.075006e+00
  2.392115e+01    1.191664e+00
  2.394393e+01    1.212794e+00
  2.396671e+01    1.216346e+00
  2.398950e+01    1.138197e+00
  2.401228e+01    1.225879e+00
  2.403506e+01    1.246978e+00
  2.405785e+01    1.207324e+00
  2.408063e+01    1.269231e+00
  2.410341e+01    1.260347e+00
  2.412619e+01    1.292035e+00
  2.414898e+01    1.376616e+00
  2.417176e+01    1.227604e+00
  2.419454e+01    1.229433e+00
  2.421733e+01    1.236111e+00
  2.424011e+01    1.258373e+00
  2.426289e+01    1.284585e+00
  2.428567e+01    1.247992e+00
  2.430846e+01    1.220716e+00
  2.433124e+01    1.172826e+00
  2.435402e+01    1.190690e+00
  2.437681e+01    1.196940e+00
  2.439959e+01    1.252313e+00
  2.442237e+01    1.278542e+00
  2.444515e+01    1.253289e+00
  2.446794e+01    1.180031e+00
  2.449072e+01    1.147046e+00
  2.451350e+01    1.165241e+00
  2.453628e+01    1.159737e+00
  2.455907e+01    1.174405e+00
  2.458185e+01    1.188826e+00
  2.460463e+01    1.235463e+00
  2.462742e+01    1.124531e+00
  2.465020e+01    1.154323e+00
  2.467298e+01    1.228080e+00
  2.469576e+01    1.241421e+00
  2.471855e+01    1.195290e+00
  2.474133e+01    1.192447e+00
  2.476411e+01    1.209008e+00
  2.478690e+01    1.233039e+00
  2.480968e+01    1.299789e+00
  2.483246e+01    1.254465e+00
  2.485524e+01    1.211674e+00
  2.487803e+01    1.172357e+00
  2.490081e+01    1.260748e+00
  2.492359e+01    1.300091e+00
  2.494637e+01    1.153321e+00
  2.496916e+01    1.220783e+00
  2.499194e+01    1.207987e+00
  2.501472e+01    1.237444e+00
  2.503751e+01    1.260051e+00
  2.506029e+01    1.219948e+00
  2.508307e+01    1.246716e+00
  2.510585e+01    1.151250e+00
  2.512864e+01    1.121515e+00
  2.515142e+01    1.196764e+00
  2.517420e+01    1.276319e+00
  2.519699e+01    1.239977e+00
  2.521977e+01    1.188163e+00
  2.524255e+01    1.215166e+00
  2.526533e+01    1.189852e+00
  2.528812e+01    1.243052e+00
  2.531090e+01    1.236761e+00
  2.533368e+01    1.305336e+00
  2.535647e+01    1.271239e+00
  2.537925e+01    1.202001e+00
  2.540203e+01    1.190605e+00
  2.542481e+01    1.220194e+00
  2.544760e+01    1.241569e+00
  2.547038e+01    1.310430e+00
  2.549316e+01    1.268999e+00
  2.551594e+01    1.237370e+00
  2.553873e+01    1.187958e+00
  2.556151e+01    1.143131e+00
  2.558429e+01    1.151431e+00
  2.560708e+01    1.171414e+00
  2.562986e+01    1.213675e+00
  2.565264e+01    1.203397e+00
  2.567542e+01    1.182707e+00
  2.569821e+01    1.231152e+00
  2.572099e+01    1.242246e+00
  2.574377e+01    1.184017e+00
  2.576656e+01    1.220500e+00
  2.578934e+01    1.207408e+00
  2.581212e+01    1.197209e+00
  2.583490e+01    1.147026e+00
  2.585769e+01    1.245374e+00
  2.588047e+01    1.242458e+00
  2.590325e+01    1.239928e+00
  2.592604e+01    1.196325e+00
  2.594882e+01    1.315007e+00
  2.597160e+01    1.276563e+00
  2.599438e+01    1.275654e+00
  2.601717e+01    1.273795e+00
  2.603995e+01    1.205341e+00
  2.606273e+01    1.195667e+00
  2.608551e+01    1.215412e+00
  2.610830e+01    1.189526e+00
  2.613108e+01    1.228433e+00
  2.615386e+01    1.217254e+00
  2.617665e+01    1.247970e+00
  2.619943e+01    1.235297e+00
  2.622221e+01    1.229865e+00
  2.624499e+01    1.187419e+00
  2.626778e+01    1.217698e+00
  2.629056e+01    1.240544e+00
  2.631334e+01    1.246903e+00
  2.633613e+01    1.207904e+00
  2.635891e+01    1.194132e+00
  2.638169e+01    1.218431e+00
  2.640447e+01    1.211391e+00
  2.642726e+01    1.219014e+00
  2.645004e+01    1.238591e+00
  2.647282e+01    1.262822e+00
  2.649560e+01    1.228124e+00
  2.651839e+01    1.245743e+00
  2.654117e+01    1.256809e+00
  2.656395e+01    1.186469e+00
  2.658674e+01    1.250024e+00
  2.660952e+01    1.220395e+00
  2.663230e+01    1.210991e+00
  2.665508e+01    1.260856e+00
  2.667787e+01    1.245342e+00
  2.670065e+01    1.253983e+00
  2.672343e+01    1.243692e+00
  2.674622e+01    1.257659e+00
  2.676900e+01    1.265926e+00
  2.679178e+01    1.277423e+00
  2.681456e+01    1.265849e+00
  2.683735e+01    1.239288e+00
  2.686013e+01    1.260861e+00
  2.688291e+01    1.289286e+00
  2.690570e+01    1.233102e+00
  2.692848e+01    1.229480e+00
  2.695126e+01    1.225659e+00
  2.697404e+01    1.245154e+00
  2.699683e+01    1.267554e+00
  2.701961e+01    1.205802e+00
  2.704239e+01    1.204205e+00
  2.706517e+01    1.202742e+00
  2.708796e+01    1.217654e+00
  2.711074e+01    1.337533e+00
  2.713352e+01    1.321816e+00
  2.715631e+01    1.278891e+00
  2.717909e+01    1.240137e+00
  2.720187e+01    1.337547e+00
  2.722465e+01    1.259773e+00
  2.724744e+01    1.283705e+00
  2.727022e+01    1.291709e+00
  2.729300e+01    1.264963e+00
  2.731579e+01    1.356739e+00
  2.733857e+01    1.336900e+00
  2.736135e+01    1.335478e+00
  2.738413e+01    1.377927e+00
  2.740692e+01    1.348382e+00
  2.742970e+01    1.358875e+00
  2.745248e+01    1.352523e+00
  2.747527e+01    1.354805e+00
  2.749805e+01    1.406446e+00
  2.752083e+01    1.390980e+00
  2.754361e+01    1.450338e+00
  2.756640e+01    1.475857e+00
  2.758918e+01    1.499354e+00
  2.761196e+01    1.471344e+00
  2.763474e+01    1.432888e+00
  2.765753e+01    1.495399e+00
  2.768031e+01    1.576378e+00
  2.770309e+01    1.561381e+00
  2.772588e+01    1.556688e+00
  2.774866e+01    1.598425e+00
  2.777144e+01    1.529222e+00
  2.779422e+01    1.587943e+00
  2.781701e+01    1.626815e+00
  2.783979e+01    1.620599e+00
  2.786257e+01    1.641576e+00
  2.788536e+01    1.585118e+00
  2.790814e+01    1.687791e+00
  2.793092e+01    1.620570e+00
  2.795370e+01    1.606674e+00
  2.797649e+01    1.787652e+00
  2.799927e+01    1.709436e+00
  2.802205e+01    1.686577e+00
  2.804483e+01    1.742721e+00
  2.806762e+01    1.804176e+00
  2.809040e+01    1.741706e+00
  2.811318e+01    1.826747e+00
  2.813597e+01    1.844795e+00
  2.815875e+01    1.730386e+00
  2.818153e+01    1.738738e+00
  2.820431e+01    1.868179e+00
  2.822710e+01    1.830057e+00
  2.824988e+01    1.833485e+00
  2.827266e+01    1.811349e+00
  2.829545e+01    1.828128e+00
  2.831823e+01    1.875736e+00
  2.834101e+01    1.811852e+00
  2.836379e+01    1.817445e+00
  2.838658e+01    1.723273e+00
  2.840936e+01    1.770931e+00
  2.843214e+01    1.750885e+00
  2.845493e+01    1.770320e+00
  2.847771e+01    1.752418e+00
  2.850049e+01    1.777797e+00
  2.852327e+01    1.712148e+00
  2.854606e+01    1.755499e+00
  2.856884e+01    1.716567e+00
  2.859162e+01    1.739184e+00
  2.861440e+01    1.662634e+00
  2.863719e+01    1.724344e+00
  2.865997e+01    1.743131e+00
  2.868275e+01    1.783214e+00
  2.870554e+01    1.663917e+00
  2.872832e+01    1.679213e+00
  2.875110e+01    1.665923e+00
  2.877388e+01    1.601819e+00
  2.879667e+01    1.688073e+00
  2.881945e+01    1.731136e+00
  2.884223e+01    1.719145e+00
  2.886502e+01    1.807438e+00
  2.888780e+01    1.805288e+00
  2.891058e+01    1.697623e+00
  2.893336e+01    1.672560e+00
  2.895615e+01    1.691526e+00
  2.897893e+01    1.675540e+00
  2.900171e+01    1.724063e+00
  2.902450e+01    1.635193e+00
  2.904728e+01    1.616093e+00
  2.907006e+01    1.647024e+00
  2.909284e+01    1.646680e+00
  2.911563e+01    1.667581e+00
  2.913841e+01    1.615700e+00
  2.916119e+01    1.735726e+00
  2.918397e+01    1.692394e+00
  2.920676e+01    1.608305e+00
  2.922954e+01    1.648685e+00
  2.925232e+01    1.710895e+00
  2.927511e+01    1.652580e+00
  2.929789e+01    1.569556e+00
  2.932067e+01    1.692974e+00
  2.934345e+01    1.705369e+00
  2.936624e+01    1.597621e+00
  2.938902e+01    1.636680e+00
  2.941180e+01    1.623252e+00
  2.943459e+01    1.643849e+00
  2.945737e+01    1.530430e+00
  2.948015e+01    1.471925e+00
  2.950293e+01    1.579303e+00
  2.952572e+01    1.577165e+00
  2.954850e+01    1.531148e+00
  2.957128e+01    1.554517e+00
  2.959407e+01    1.570800e+00
  2.961685e+01    1.627980e+00
  2.963963e+01    1.607117e+00
  2.966241e+01    1.636473e+00
  2.968520e+01    1.477605e+00
  2.970798e+01    1.582542e+00
  2.973076e+01    1.433532e+00
  2.975354e+01    1.441308e+00
  2.977633e+01    1.435001e+00
  2.979911e+01    1.484949e+00
  2.982189e+01    1.461578e+00
  2.984468e+01    1.405555e+00
  2.986746e+01    1.389671e+00
  2.989024e+01    1.416336e+00
  2.991302e+01    1.379712e+00
  2.993581e+01    1.441969e+00
  2.995859e+01    1.462978e+00
  2.998137e+01    1.467669e+00
  3.000416e+01    1.454759e+00
  3.002694e+01    1.357211e+00
  3.004972e+01    1.367065e+00
  3.007250e+01    1.422161e+00
  3.009529e+01    1.395061e+00
  3.011807e+01    1.414029e+00
  3.014085e+01    1.465074e+00
  3.016363e+01    1.329600e+00
  3.018642e+01    1.319605e+00
  3.020920e+01    1.341252e+00
  3.023198e+01    1.362833e+00
  3.025477e+01    1.320801e+00
  3.027755e+01    1.290615e+00
  3.030033e+01    1.242185e+00
  3.032311e+01    1.270707e+00
  3.034590e+01    1.298208e+00
  3.036868e+01    1.231867e+00
  3.039146e+01    1.361012e+00
  3.041425e+01    1.269391e+00
  3.043703e+01    1.337113e+00
  3.045981e+01    1.269615e+00
  3.048259e+01    1.303048e+00
  3.050538e+01    1.276236e+00
  3.052816e+01    1.284952e+00
  3.055094e+01    1.241230e+00
  3.057373e+01    1.230986e+00
  3.059651e+01    1.224960e+00
  3.061929e+01    1.131054e+00
  3.064207e+01    1.096744e+00
  3.066486e+01    1.176473e+00
  3.068764e+01    1.181656e+00
  3.071042e+01    1.212128e+00
  3.073320e+01    1.156025e+00
  3.075599e+01    1.260028e+00
  3.077877e+01    1.161307e+00
  3.080155e+01    1.178738e+00
  3.082434e+01    1.087968e+00
  3.084712e+01    1.163233e+00
  3.086990e+01    1.148044e+00
  3.089268e+01    1.153338e+00
  3.091547e+01    1.209168e+00
  3.093825e+01    1.079790e+00
  3.096103e+01    1.209983e+00
  3.098382e+01    1.221457e+00
  3.100660e+01    1.140069e+00
  3.102938e+01    1.149762e+00
  3.105216e+01    1.204534e+00
  3.107495e+01    1.137930e+00
  3.109773e+01    1.135811e+00
  3.112051e+01    1.112525e+00
  3.114330e+01    1.177077e+00
  3.116608e+01    1.152682e+00
  3.118886e+01    1.029959e+00
  3.121164e+01    1.198560e+00
  3.123443e+01    1.147915e+00
  3.125721e+01    1.115079e+00
  3.127999e+01    1.168439e+00
  3.130277e+01    1.184942e+00
  3.132556e+01    1.138705e+00
  3.134834e+01    1.170226e+00
  3.137112e+01    1.068274e+00
  3.139391e+01    1.194329e+00
  3.141669e+01    1.130590e+00
  3.143947e+01    1.198109e+00
  3.146225e+01    1.186597e+00
  3.148504e+01    1.264221e+00
  3.150782e+01    1.232836e+00
  3.153060e+01    1.115754e+00
  3.155339e+01    1.262857e+00
  3.157617e+01    1.102102e+00
  3.159895e+01    1.126914e+00
  3.162173e+01    1.157176e+00
  3.164452e+01    1.186161e+00
  3.166730e+01    1.137530e+00
  3.169008e+01    1.094260e+00
  3.171286e+01    1.114669e+00
  3.173565e+01    1.131765e+00
  3.175843e+01    1.124009e+00
  3.178121e+01    1.089518e+00
  3.180400e+01    1.200169e+00
  3.182678e+01    1.114963e+00
  3.184956e+01    1.100241e+00
  3.187234e+01    1.083064e+00
  3.189513e+01    1.009975e+00
  3.191791e+01    1.064733e+00
  3.194069e+01    1.086066e+00
  3.196348e+01    1.186371e+00
  3.198626e+01    1.171220e+00
  3.200904e+01    1.099868e+00
  3.203182e+01    1.138922e+00
  3.205461e+01    1.087547e+00
  3.207739e+01    1.073953e+00
  3.210017e+01    1.046804e+00
  3.212296e+01    1.101195e+00
  3.214574e+01    1.057189e+00
  3.216852e+01    1.215534e+00
  3.219130e+01    1.167534e+00
  3.221409e+01    1.110543e+00
  3.223687e+01    1.187082e+00
  3.225965e+01    1.148953e+00
  3.228243e+01    1.123169e+00
  3.230522e+01    1.123766e+00
  3.232800e+01    1.093862e+00
  3.235078e+01    1.076404e+00
  3.237357e+01    1.086466e+00
  3.239635e+01    1.126397e+00
  3.241913e+01    1.014420e+00
  3.244191e+01    1.220445e+00
  3.246470e+01    1.063973e+00
  3.248748e+01    1.125119e+00
  3.251026e+01    1.030372e+00
  3.253305e+01    1.141373e+00
  3.255583e+01    1.186508e+00
  3.257861e+01    1.129969e+00
  3.260139e+01    1.016431e+00
  3.262418e+01    1.169377e+00
  3.264696e+01    1.047475e+00
  3.266974e+01    1.174732e+00
  3.269253e+01    1.037679e+00
  3.271531e+01    1.105282e+00
  3.273809e+01    1.179389e+00
  3.276087e+01    1.191766e+00
  3.278366e+01    1.119273e+00
  3.280644e+01    1.200010e+00
  3.282922e+01    1.084181e+00
  3.285200e+01    1.083005e+00
  3.287479e+01    1.096908e+00
  3.289757e+01    1.111951e+00
  3.292035e+01    1.108274e+00
  3.294314e+01    1.156515e+00
  3.296592e+01    1.081785e+00
  3.298870e+01    1.018807e+00
  3.301148e+01    1.124826e+00
  3.303427e+01    1.185119e+00
  3.305705e+01    1.293762e+00
  3.307983e+01    1.056995e+00
  3.310262e+01    1.192148e+00
  3.312540e+01    1.163634e+00
  3.314818e+01    9.651275e-01
  3.317096e+01    9.208754e-01
  3.319375e+01    1.077755e+00
  3.321653e+01    9.973292e-01
  3.323931e+01    1.217508e+00
  3.326209e+01    8.850974e-01
  3.328488e+01    1.154880e+00
  3.330766e+01    1.236498e+00
  3.333044e+01    7.746168e-01
  3.335323e+01    1.355697e+00
  3.337601e+01    1.112175e+00
  3.339879e+01    6.151178e-01
  3.342157e+01    6.570657e-01
  3.344436e+01    2.689896e-01
  3.346714e+01    0.000000e+00
  3.348992e+01    0.000000e+00
  3.351271e+01    0.000000e+00
  3.353549e+01    0.000000e+00
  3.355827e+01    0.000000e+00
  3.358105e+01    0.000000e+00
  3.360384e+01    0.000000e+00
  3.362662e+01    0.000000e+00
  3.364940e+01    0.000000e+00
  3.367219e+01    0.000000e+00
  3.369497e+01    0.000000e+00
  3.371775e+01    0.000000e+00
