# == pyFAI calibration ==
# Distance Sample to Detector: 0.21311058206280517 m
# PONI: 2.037e-01, 1.993e-01 m
# Rotations: -0.005459 0.000134 0.000000 rad
# 
# == Fit2d calibration ==
# Distance Sample-beamCenter: 213.114 mm
# Center: x=1002.134, y=1018.730 pix
# Tilt: 0.313 deg  TiltPlanRot: 1.411 deg
# 
# Detector Perkin detector	 PixelSize= 2.000e-04, 2.000e-04 m
#    Detector has a mask: False 
#    Detector has a dark current: False 
#    detector has a flat field: False 
# 
# Wavelength: 1.675e-11 m
# Mask applied: provided
# Dark current applied: False
# Flat field applied: False
# Polarization factor: None
# Normalization factor: 1.0
# --> data/chi_bkgsub_true/C_Tatania1-49.5-average.chi
#        q_A^-1             I 
  2.199784e-02    7.195570e-02
  4.478064e-02    9.903010e-01
  6.756343e-02    1.683109e+00
  9.034623e-02    1.502332e+00
  1.131290e-01    1.817914e+00
  1.359118e-01    1.736404e+00
  1.586946e-01    1.541914e+00
  1.814774e-01    1.412465e+00
  2.042602e-01    1.780735e+00
  2.270430e-01    2.711849e+00
  2.498258e-01    4.233767e+00
  2.726086e-01    9.367975e+00
  2.953914e-01    2.828446e+01
  3.181742e-01    6.142772e+01
  3.409570e-01    7.967957e+01
  3.637398e-01    5.777200e+01
  3.865226e-01    4.147497e+01
  4.093054e-01    4.243296e+01
  4.320881e-01    3.617271e+01
  4.548709e-01    2.197810e+01
  4.776537e-01    1.257326e+01
  5.004365e-01    9.669252e+00
  5.232193e-01    9.355376e+00
  5.460021e-01    1.070251e+01
  5.687849e-01    1.308048e+01
  5.915677e-01    1.391357e+01
  6.143505e-01    1.326909e+01
  6.371333e-01    1.196441e+01
  6.599161e-01    1.052120e+01
  6.826989e-01    1.101595e+01
  7.054817e-01    1.160940e+01
  7.282645e-01    1.104745e+01
  7.510473e-01    1.089170e+01
  7.738301e-01    1.110668e+01
  7.966129e-01    1.090515e+01
  8.193956e-01    1.126405e+01
  8.421784e-01    1.100315e+01
  8.649612e-01    1.042575e+01
  8.877440e-01    1.056302e+01
  9.105268e-01    1.089711e+01
  9.333096e-01    1.116147e+01
  9.560924e-01    1.074048e+01
  9.788752e-01    1.052754e+01
  1.001658e+00    1.010727e+01
  1.024441e+00    9.935188e+00
  1.047224e+00    9.664124e+00
  1.070006e+00    9.210788e+00
  1.092789e+00    9.233758e+00
  1.115572e+00    9.212299e+00
  1.138355e+00    9.236971e+00
  1.161138e+00    9.210373e+00
  1.183920e+00    9.543378e+00
  1.206703e+00    9.826906e+00
  1.229486e+00    1.050507e+01
  1.252269e+00    1.053594e+01
  1.275052e+00    1.064335e+01
  1.297834e+00    1.062320e+01
  1.320617e+00    1.009196e+01
  1.343400e+00    1.081244e+01
  1.366183e+00    1.148530e+01
  1.388966e+00    1.104344e+01
  1.411748e+00    1.093655e+01
  1.434531e+00    1.083705e+01
  1.457314e+00    1.013897e+01
  1.480097e+00    9.709953e+00
  1.502879e+00    9.630885e+00
  1.525662e+00    1.024508e+01
  1.548445e+00    1.032946e+01
  1.571228e+00    1.040909e+01
  1.594011e+00    1.071251e+01
  1.616793e+00    1.099428e+01
  1.639576e+00    1.103402e+01
  1.662359e+00    1.152509e+01
  1.685142e+00    1.259989e+01
  1.707925e+00    1.528801e+01
  1.730707e+00    1.880010e+01
  1.753490e+00    2.248336e+01
  1.776273e+00    2.457717e+01
  1.799056e+00    2.340592e+01
  1.821839e+00    1.972048e+01
  1.844621e+00    1.490515e+01
  1.867404e+00    1.097346e+01
  1.890187e+00    8.682949e+00
  1.912970e+00    6.977364e+00
  1.935753e+00    6.115925e+00
  1.958535e+00    5.663592e+00
  1.981318e+00    5.004068e+00
  2.004101e+00    4.517988e+00
  2.026884e+00    4.365576e+00
  2.049667e+00    4.046869e+00
  2.072449e+00    4.029866e+00
  2.095232e+00    4.809490e+00
  2.118015e+00    5.088012e+00
  2.140798e+00    5.042179e+00
  2.163581e+00    4.764643e+00
  2.186363e+00    3.788916e+00
  2.209146e+00    2.611912e+00
  2.231929e+00    3.029443e+00
  2.254712e+00    3.307890e+00
  2.277494e+00    3.490219e+00
  2.300277e+00    3.640672e+00
  2.323060e+00    3.841237e+00
  2.345843e+00    3.829277e+00
  2.368626e+00    3.235647e+00
  2.391408e+00    3.058950e+00
  2.414191e+00    3.649386e+00
  2.436974e+00    3.917887e+00
  2.459757e+00    4.121254e+00
  2.482540e+00    3.819899e+00
  2.505322e+00    2.776151e+00
  2.528105e+00    2.812875e+00
  2.550888e+00    2.828871e+00
  2.573671e+00    3.086861e+00
  2.596454e+00    3.509383e+00
  2.619236e+00    3.919675e+00
  2.642019e+00    4.223123e+00
  2.664802e+00    4.031187e+00
  2.687585e+00    3.819956e+00
  2.710368e+00    3.334786e+00
  2.733150e+00    3.069761e+00
  2.755933e+00    2.852991e+00
  2.778716e+00    2.887869e+00
  2.801499e+00    2.744817e+00
  2.824282e+00    2.550287e+00
  2.847064e+00    2.712427e+00
  2.869847e+00    2.872393e+00
  2.892630e+00    2.783637e+00
  2.915413e+00    2.456007e+00
  2.938196e+00    2.068583e+00
  2.960978e+00    2.103064e+00
  2.983761e+00    2.161915e+00
  3.006544e+00    2.148504e+00
  3.029327e+00    1.960151e+00
  3.052110e+00    2.081133e+00
  3.074892e+00    2.212791e+00
  3.097675e+00    2.388699e+00
  3.120458e+00    2.737035e+00
  3.143241e+00    2.713736e+00
  3.166023e+00    2.381554e+00
  3.188806e+00    2.437321e+00
  3.211589e+00    2.625698e+00
  3.234372e+00    3.394204e+00
  3.257155e+00    3.717531e+00
  3.279937e+00    4.365165e+00
  3.302720e+00    5.039325e+00
  3.325503e+00    4.770996e+00
  3.348286e+00    3.608519e+00
  3.371069e+00    2.911019e+00
  3.393851e+00    2.802874e+00
  3.416634e+00    2.488537e+00
  3.439417e+00    2.603415e+00
  3.462200e+00    3.125764e+00
  3.484983e+00    3.495244e+00
  3.507765e+00    3.531346e+00
  3.530548e+00    2.929304e+00
  3.553331e+00    2.277107e+00
  3.576114e+00    2.359970e+00
  3.598897e+00    2.977748e+00
  3.621679e+00    3.370790e+00
  3.644462e+00    3.545152e+00
  3.667245e+00    3.894282e+00
  3.690028e+00    4.421669e+00
  3.712811e+00    4.703166e+00
  3.735593e+00    4.651746e+00
  3.758376e+00    4.516337e+00
  3.781159e+00    4.391089e+00
  3.803942e+00    4.106327e+00
  3.826725e+00    3.650246e+00
  3.849507e+00    3.396850e+00
  3.872290e+00    3.063758e+00
  3.895073e+00    3.090696e+00
  3.917856e+00    3.184808e+00
  3.940638e+00    3.014829e+00
  3.963421e+00    2.803814e+00
  3.986204e+00    2.780617e+00
  4.008987e+00    2.831115e+00
  4.031770e+00    3.241424e+00
  4.054552e+00    3.852939e+00
  4.077335e+00    4.230644e+00
  4.100118e+00    4.383904e+00
  4.122901e+00    4.330777e+00
  4.145684e+00    3.349378e+00
  4.168466e+00    2.918209e+00
  4.191249e+00    3.130316e+00
  4.214032e+00    3.327771e+00
  4.236815e+00    3.346989e+00
  4.259598e+00    3.350921e+00
  4.282380e+00    3.374436e+00
  4.305163e+00    3.521941e+00
  4.327946e+00    3.359185e+00
  4.350729e+00    2.905460e+00
  4.373512e+00    2.386795e+00
  4.396294e+00    2.354841e+00
  4.419077e+00    2.661709e+00
  4.441860e+00    2.604181e+00
  4.464643e+00    2.553217e+00
  4.487426e+00    2.580512e+00
  4.510208e+00    2.668910e+00
  4.532991e+00    2.656479e+00
  4.555774e+00    2.661092e+00
  4.578557e+00    2.695127e+00
  4.601340e+00    2.760515e+00
  4.624122e+00    2.666719e+00
  4.646905e+00    2.652089e+00
  4.669688e+00    2.750755e+00
  4.692471e+00    2.763569e+00
  4.715253e+00    2.534313e+00
  4.738036e+00    2.475484e+00
  4.760819e+00    2.514746e+00
  4.783602e+00    2.501114e+00
  4.806385e+00    2.431948e+00
  4.829167e+00    2.295881e+00
  4.851950e+00    2.432904e+00
  4.874733e+00    2.622589e+00
  4.897516e+00    2.595768e+00
  4.920299e+00    2.754193e+00
  4.943081e+00    2.743875e+00
  4.965864e+00    2.639536e+00
  4.988647e+00    2.542547e+00
  5.011430e+00    2.530536e+00
  5.034213e+00    2.257425e+00
  5.056995e+00    2.127097e+00
  5.079778e+00    2.211853e+00
  5.102561e+00    2.316535e+00
  5.125344e+00    2.152575e+00
  5.148127e+00    1.859253e+00
  5.170909e+00    1.903472e+00
  5.193692e+00    2.089544e+00
  5.216475e+00    1.960919e+00
  5.239258e+00    2.028831e+00
  5.262041e+00    2.070347e+00
  5.284823e+00    2.315025e+00
  5.307606e+00    2.188403e+00
  5.330389e+00    1.995569e+00
  5.353172e+00    2.042448e+00
  5.375955e+00    2.155946e+00
  5.398737e+00    2.326180e+00
  5.421520e+00    2.245391e+00
  5.444303e+00    2.192815e+00
  5.467086e+00    2.044631e+00
  5.489869e+00    1.696980e+00
  5.512651e+00    1.930454e+00
  5.535434e+00    2.076683e+00
  5.558217e+00    1.935266e+00
  5.581000e+00    1.588354e+00
  5.603782e+00    1.601312e+00
  5.626565e+00    1.636574e+00
  5.649348e+00    1.663468e+00
  5.672131e+00    2.020875e+00
  5.694914e+00    1.958965e+00
  5.717696e+00    1.840230e+00
  5.740479e+00    1.795109e+00
  5.763262e+00    1.825141e+00
  5.786045e+00    1.984602e+00
  5.808828e+00    1.988589e+00
  5.831610e+00    1.752815e+00
  5.854393e+00    1.676200e+00
  5.877176e+00    1.724706e+00
  5.899959e+00    1.689604e+00
  5.922742e+00    1.781365e+00
  5.945524e+00    2.087326e+00
  5.968307e+00    2.399858e+00
  5.991090e+00    2.311229e+00
  6.013873e+00    2.174904e+00
  6.036656e+00    2.004597e+00
  6.059438e+00    2.109224e+00
  6.082221e+00    1.919321e+00
  6.105004e+00    1.837700e+00
  6.127787e+00    1.844566e+00
  6.150570e+00    1.874542e+00
  6.173352e+00    1.830088e+00
  6.196135e+00    1.560856e+00
  6.218918e+00    1.697564e+00
  6.241701e+00    1.790357e+00
  6.264484e+00    1.911976e+00
  6.287266e+00    2.080013e+00
  6.310049e+00    1.958742e+00
  6.332832e+00    1.979357e+00
  6.355615e+00    1.755601e+00
  6.378397e+00    1.761500e+00
  6.401180e+00    1.965025e+00
  6.423963e+00    1.931734e+00
  6.446746e+00    1.825716e+00
  6.469529e+00    1.834629e+00
  6.492311e+00    1.652942e+00
  6.515094e+00    1.668994e+00
  6.537877e+00    1.697658e+00
  6.560660e+00    1.883146e+00
  6.583443e+00    1.980354e+00
  6.606225e+00    1.998027e+00
  6.629008e+00    2.134875e+00
  6.651791e+00    2.101363e+00
  6.674574e+00    1.846129e+00
  6.697357e+00    1.918704e+00
  6.720139e+00    1.976815e+00
  6.742922e+00    1.934523e+00
  6.765705e+00    1.804708e+00
  6.788488e+00    1.969553e+00
  6.811271e+00    2.006360e+00
  6.834053e+00    1.944113e+00
  6.856836e+00    2.006746e+00
  6.879619e+00    1.872766e+00
  6.902402e+00    1.920508e+00
  6.925185e+00    1.916628e+00
  6.947967e+00    1.952575e+00
  6.970750e+00    2.079136e+00
  6.993533e+00    2.145954e+00
  7.016316e+00    1.977799e+00
  7.039099e+00    1.871390e+00
  7.061881e+00    1.837086e+00
  7.084664e+00    1.999893e+00
  7.107447e+00    1.991244e+00
  7.130230e+00    2.011732e+00
  7.153013e+00    1.958216e+00
  7.175795e+00    1.954952e+00
  7.198578e+00    1.852482e+00
  7.221361e+00    1.893036e+00
  7.244144e+00    1.832849e+00
  7.266926e+00    1.762697e+00
  7.289709e+00    1.829613e+00
  7.312492e+00    1.799074e+00
  7.335275e+00    1.925633e+00
  7.358058e+00    1.734943e+00
  7.380840e+00    1.930652e+00
  7.403623e+00    2.026997e+00
  7.426406e+00    2.010470e+00
  7.449189e+00    1.943009e+00
  7.471972e+00    2.011621e+00
  7.494754e+00    2.006723e+00
  7.517537e+00    1.883133e+00
  7.540320e+00    1.756378e+00
  7.563103e+00    1.926390e+00
  7.585886e+00    1.861249e+00
  7.608668e+00    1.701877e+00
  7.631451e+00    1.750811e+00
  7.654234e+00    1.831961e+00
  7.677017e+00    1.843436e+00
  7.699800e+00    1.811798e+00
  7.722582e+00    1.839319e+00
  7.745365e+00    1.920526e+00
  7.768148e+00    1.895734e+00
  7.790931e+00    1.906640e+00
  7.813714e+00    1.865181e+00
  7.836496e+00    1.953172e+00
  7.859279e+00    2.022689e+00
  7.882062e+00    1.939257e+00
  7.904845e+00    1.819978e+00
  7.927628e+00    1.863079e+00
  7.950410e+00    1.881281e+00
  7.973193e+00    1.712768e+00
  7.995976e+00    1.613295e+00
  8.018759e+00    1.657249e+00
  8.041541e+00    1.823914e+00
  8.064324e+00    1.811596e+00
  8.087107e+00    1.755690e+00
  8.109890e+00    1.712966e+00
  8.132673e+00    1.700814e+00
  8.155455e+00    1.734982e+00
  8.178238e+00    1.771368e+00
  8.201021e+00    1.853337e+00
  8.223804e+00    1.879891e+00
  8.246587e+00    1.900941e+00
  8.269369e+00    1.806224e+00
  8.292152e+00    1.703918e+00
  8.314935e+00    1.928462e+00
  8.337718e+00    1.776927e+00
  8.360501e+00    1.801865e+00
  8.383283e+00    1.885640e+00
  8.406066e+00    1.989858e+00
  8.428849e+00    2.028653e+00
  8.451632e+00    1.951514e+00
  8.474415e+00    1.738440e+00
  8.497197e+00    1.650899e+00
  8.519980e+00    1.644460e+00
  8.542763e+00    1.761997e+00
  8.565546e+00    1.731047e+00
  8.588329e+00    1.703390e+00
  8.611111e+00    1.777685e+00
  8.633894e+00    1.805057e+00
  8.656677e+00    1.594500e+00
  8.679460e+00    1.630961e+00
  8.702243e+00    1.629143e+00
  8.725025e+00    1.666308e+00
  8.747808e+00    1.771962e+00
  8.770591e+00    1.826221e+00
  8.793374e+00    1.845035e+00
  8.816156e+00    1.694632e+00
  8.838939e+00    1.630481e+00
  8.861722e+00    1.657934e+00
  8.884505e+00    1.695982e+00
  8.907288e+00    1.677433e+00
  8.930070e+00    1.718066e+00
  8.952853e+00    1.746468e+00
  8.975636e+00    1.876391e+00
  8.998419e+00    1.945876e+00
  9.021202e+00    1.849903e+00
  9.043984e+00    1.581844e+00
  9.066767e+00    1.639773e+00
  9.089550e+00    1.724005e+00
  9.112333e+00    1.716198e+00
  9.135116e+00    1.737394e+00
  9.157898e+00    1.667753e+00
  9.180681e+00    1.665097e+00
  9.203464e+00    1.668975e+00
  9.226247e+00    1.690796e+00
  9.249030e+00    1.744567e+00
  9.271812e+00    1.670624e+00
  9.294595e+00    1.728853e+00
  9.317378e+00    1.802109e+00
  9.340161e+00    1.632554e+00
  9.362944e+00    1.730906e+00
  9.385726e+00    1.770668e+00
  9.408509e+00    1.713427e+00
  9.431292e+00    1.742236e+00
  9.454075e+00    1.753742e+00
  9.476858e+00    1.717449e+00
  9.499640e+00    1.661447e+00
  9.522423e+00    1.673013e+00
  9.545206e+00    1.668924e+00
  9.567989e+00    1.657452e+00
  9.590772e+00    1.638704e+00
  9.613554e+00    1.675469e+00
  9.636337e+00    1.724561e+00
  9.659120e+00    1.727955e+00
  9.681903e+00    1.588677e+00
  9.704685e+00    1.675544e+00
  9.727468e+00    1.672935e+00
  9.750251e+00    1.649837e+00
  9.773034e+00    1.530265e+00
  9.795817e+00    1.523346e+00
  9.818599e+00    1.540260e+00
  9.841382e+00    1.480703e+00
  9.864165e+00    1.519038e+00
  9.886948e+00    1.604574e+00
  9.909731e+00    1.686752e+00
  9.932513e+00    1.699740e+00
  9.955296e+00    1.779659e+00
  9.978079e+00    1.808246e+00
  1.000086e+01    1.692101e+00
  1.002364e+01    1.712625e+00
  1.004643e+01    1.702089e+00
  1.006921e+01    1.739703e+00
  1.009199e+01    1.758250e+00
  1.011478e+01    1.715284e+00
  1.013756e+01    1.663999e+00
  1.016034e+01    1.646410e+00
  1.018312e+01    1.622403e+00
  1.020591e+01    1.562443e+00
  1.022869e+01    1.575962e+00
  1.025147e+01    1.590702e+00
  1.027426e+01    1.621074e+00
  1.029704e+01    1.586557e+00
  1.031982e+01    1.657759e+00
  1.034260e+01    1.645215e+00
  1.036539e+01    1.751260e+00
  1.038817e+01    1.767121e+00
  1.041095e+01    1.669497e+00
  1.043373e+01    1.666753e+00
  1.045652e+01    1.701300e+00
  1.047930e+01    1.657857e+00
  1.050208e+01    1.729323e+00
  1.052487e+01    1.689684e+00
  1.054765e+01    1.721856e+00
  1.057043e+01    1.769151e+00
  1.059321e+01    1.679969e+00
  1.061600e+01    1.706767e+00
  1.063878e+01    1.656797e+00
  1.066156e+01    1.752920e+00
  1.068435e+01    1.764117e+00
  1.070713e+01    1.693573e+00
  1.072991e+01    1.706875e+00
  1.075269e+01    1.764021e+00
  1.077548e+01    1.721432e+00
  1.079826e+01    1.743115e+00
  1.082104e+01    1.663589e+00
  1.084383e+01    1.668763e+00
  1.086661e+01    1.723606e+00
  1.088939e+01    1.642456e+00
  1.091217e+01    1.720631e+00
  1.093496e+01    1.708799e+00
  1.095774e+01    1.506798e+00
  1.098052e+01    1.585480e+00
  1.100330e+01    1.759758e+00
  1.102609e+01    1.800406e+00
  1.104887e+01    1.705440e+00
  1.107165e+01    1.672806e+00
  1.109444e+01    1.782959e+00
  1.111722e+01    1.621517e+00
  1.114000e+01    1.568220e+00
  1.116278e+01    1.654651e+00
  1.118557e+01    1.655544e+00
  1.120835e+01    1.667885e+00
  1.123113e+01    1.643069e+00
  1.125392e+01    1.655753e+00
  1.127670e+01    1.724739e+00
  1.129948e+01    1.761932e+00
  1.132226e+01    1.615217e+00
  1.134505e+01    1.608526e+00
  1.136783e+01    1.564994e+00
  1.139061e+01    1.637762e+00
  1.141340e+01    1.715904e+00
  1.143618e+01    1.650503e+00
  1.145896e+01    1.680866e+00
  1.148174e+01    1.791375e+00
  1.150453e+01    1.794389e+00
  1.152731e+01    1.675943e+00
  1.155009e+01    1.689390e+00
  1.157287e+01    1.711452e+00
  1.159566e+01    1.703585e+00
  1.161844e+01    1.686394e+00
  1.164122e+01    1.745025e+00
  1.166401e+01    1.759378e+00
  1.168679e+01    1.674338e+00
  1.170957e+01    1.691401e+00
  1.173235e+01    1.670874e+00
  1.175514e+01    1.784498e+00
  1.177792e+01    1.731619e+00
  1.180070e+01    1.600300e+00
  1.182349e+01    1.608048e+00
  1.184627e+01    1.603679e+00
  1.186905e+01    1.729492e+00
  1.189183e+01    1.769772e+00
  1.191462e+01    1.672239e+00
  1.193740e+01    1.677737e+00
  1.196018e+01    1.674524e+00
  1.198296e+01    1.681954e+00
  1.200575e+01    1.658961e+00
  1.202853e+01    1.658179e+00
  1.205131e+01    1.670801e+00
  1.207410e+01    1.758647e+00
  1.209688e+01    1.599503e+00
  1.211966e+01    1.652160e+00
  1.214244e+01    1.717746e+00
  1.216523e+01    1.675783e+00
  1.218801e+01    1.653973e+00
  1.221079e+01    1.654564e+00
  1.223358e+01    1.641788e+00
  1.225636e+01    1.630900e+00
  1.227914e+01    1.639235e+00
  1.230192e+01    1.657674e+00
  1.232471e+01    1.596148e+00
  1.234749e+01    1.639357e+00
  1.237027e+01    1.750205e+00
  1.239306e+01    1.724937e+00
  1.241584e+01    1.607055e+00
  1.243862e+01    1.696632e+00
  1.246140e+01    1.708745e+00
  1.248419e+01    1.618978e+00
  1.250697e+01    1.628027e+00
  1.252975e+01    1.627100e+00
  1.255253e+01    1.697443e+00
  1.257532e+01    1.689934e+00
  1.259810e+01    1.649871e+00
  1.262088e+01    1.572246e+00
  1.264367e+01    1.614747e+00
  1.266645e+01    1.692236e+00
  1.268923e+01    1.654914e+00
  1.271201e+01    1.699252e+00
  1.273480e+01    1.595168e+00
  1.275758e+01    1.576950e+00
  1.278036e+01    1.606997e+00
  1.280315e+01    1.631757e+00
  1.282593e+01    1.666858e+00
  1.284871e+01    1.570879e+00
  1.287149e+01    1.551250e+00
  1.289428e+01    1.571905e+00
  1.291706e+01    1.621977e+00
  1.293984e+01    1.553184e+00
  1.296263e+01    1.574435e+00
  1.298541e+01    1.621408e+00
  1.300819e+01    1.670063e+00
  1.303097e+01    1.521157e+00
  1.305376e+01    1.569321e+00
  1.307654e+01    1.675678e+00
  1.309932e+01    1.655860e+00
  1.312210e+01    1.617554e+00
  1.314489e+01    1.695871e+00
  1.316767e+01    1.734505e+00
  1.319045e+01    1.629269e+00
  1.321324e+01    1.610802e+00
  1.323602e+01    1.550867e+00
  1.325880e+01    1.556119e+00
  1.328158e+01    1.596512e+00
  1.330437e+01    1.549224e+00
  1.332715e+01    1.595281e+00
  1.334993e+01    1.599421e+00
  1.337272e+01    1.551070e+00
  1.339550e+01    1.537280e+00
  1.341828e+01    1.474981e+00
  1.344106e+01    1.512763e+00
  1.346385e+01    1.639920e+00
  1.348663e+01    1.667141e+00
  1.350941e+01    1.542074e+00
  1.353219e+01    1.593840e+00
  1.355498e+01    1.618803e+00
  1.357776e+01    1.587994e+00
  1.360054e+01    1.588415e+00
  1.362333e+01    1.649769e+00
  1.364611e+01    1.679404e+00
  1.366889e+01    1.599434e+00
  1.369167e+01    1.599337e+00
  1.371446e+01    1.669495e+00
  1.373724e+01    1.706620e+00
  1.376002e+01    1.590391e+00
  1.378281e+01    1.546627e+00
  1.380559e+01    1.535421e+00
  1.382837e+01    1.525113e+00
  1.385115e+01    1.537194e+00
  1.387394e+01    1.595606e+00
  1.389672e+01    1.524107e+00
  1.391950e+01    1.553965e+00
  1.394229e+01    1.586474e+00
  1.396507e+01    1.570462e+00
  1.398785e+01    1.549997e+00
  1.401063e+01    1.685592e+00
  1.403342e+01    1.705618e+00
  1.405620e+01    1.645446e+00
  1.407898e+01    1.558263e+00
  1.410176e+01    1.526601e+00
  1.412455e+01    1.554688e+00
  1.414733e+01    1.637455e+00
  1.417011e+01    1.682336e+00
  1.419290e+01    1.637434e+00
  1.421568e+01    1.690831e+00
  1.423846e+01    1.618534e+00
  1.426124e+01    1.514086e+00
  1.428403e+01    1.498206e+00
  1.430681e+01    1.560305e+00
  1.432959e+01    1.595894e+00
  1.435238e+01    1.622254e+00
  1.437516e+01    1.641539e+00
  1.439794e+01    1.628302e+00
  1.442072e+01    1.591644e+00
  1.444351e+01    1.581085e+00
  1.446629e+01    1.472983e+00
  1.448907e+01    1.443637e+00
  1.451186e+01    1.508056e+00
  1.453464e+01    1.602038e+00
  1.455742e+01    1.672431e+00
  1.458020e+01    1.571804e+00
  1.460299e+01    1.520540e+00
  1.462577e+01    1.547332e+00
  1.464855e+01    1.638963e+00
  1.467133e+01    1.662937e+00
  1.469412e+01    1.600330e+00
  1.471690e+01    1.528818e+00
  1.473968e+01    1.520538e+00
  1.476247e+01    1.590564e+00
  1.478525e+01    1.542781e+00
  1.480803e+01    1.538771e+00
  1.483081e+01    1.610644e+00
  1.485360e+01    1.592494e+00
  1.487638e+01    1.609987e+00
  1.489916e+01    1.504013e+00
  1.492195e+01    1.518300e+00
  1.494473e+01    1.590766e+00
  1.496751e+01    1.607992e+00
  1.499029e+01    1.578169e+00
  1.501308e+01    1.569224e+00
  1.503586e+01    1.564564e+00
  1.505864e+01    1.477916e+00
  1.508142e+01    1.550302e+00
  1.510421e+01    1.560595e+00
  1.512699e+01    1.609725e+00
  1.514977e+01    1.666278e+00
  1.517256e+01    1.639391e+00
  1.519534e+01    1.675232e+00
  1.521812e+01    1.609356e+00
  1.524090e+01    1.564896e+00
  1.526369e+01    1.592141e+00
  1.528647e+01    1.617945e+00
  1.530925e+01    1.589836e+00
  1.533204e+01    1.468451e+00
  1.535482e+01    1.504477e+00
  1.537760e+01    1.515072e+00
  1.540038e+01    1.507419e+00
  1.542317e+01    1.467633e+00
  1.544595e+01    1.542189e+00
  1.546873e+01    1.598008e+00
  1.549152e+01    1.502371e+00
  1.551430e+01    1.566875e+00
  1.553708e+01    1.604669e+00
  1.555986e+01    1.576691e+00
  1.558265e+01    1.544381e+00
  1.560543e+01    1.597897e+00
  1.562821e+01    1.628361e+00
  1.565099e+01    1.470443e+00
  1.567378e+01    1.467511e+00
  1.569656e+01    1.577981e+00
  1.571934e+01    1.565132e+00
  1.574213e+01    1.548806e+00
  1.576491e+01    1.535287e+00
  1.578769e+01    1.520470e+00
  1.581047e+01    1.563106e+00
  1.583326e+01    1.641432e+00
  1.585604e+01    1.605958e+00
  1.587882e+01    1.589271e+00
  1.590161e+01    1.600722e+00
  1.592439e+01    1.592463e+00
  1.594717e+01    1.576461e+00
  1.596995e+01    1.515753e+00
  1.599274e+01    1.562780e+00
  1.601552e+01    1.521350e+00
  1.603830e+01    1.545599e+00
  1.606109e+01    1.595271e+00
  1.608387e+01    1.593861e+00
  1.610665e+01    1.597134e+00
  1.612943e+01    1.533073e+00
  1.615222e+01    1.495714e+00
  1.617500e+01    1.526506e+00
  1.619778e+01    1.607770e+00
  1.622056e+01    1.489106e+00
  1.624335e+01    1.573080e+00
  1.626613e+01    1.618994e+00
  1.628891e+01    1.656097e+00
  1.631170e+01    1.632435e+00
  1.633448e+01    1.509890e+00
  1.635726e+01    1.543634e+00
  1.638004e+01    1.538182e+00
  1.640283e+01    1.511679e+00
  1.642561e+01    1.581054e+00
  1.644839e+01    1.495603e+00
  1.647118e+01    1.503887e+00
  1.649396e+01    1.504201e+00
  1.651674e+01    1.498509e+00
  1.653952e+01    1.456201e+00
  1.656231e+01    1.519837e+00
  1.658509e+01    1.504088e+00
  1.660787e+01    1.520655e+00
  1.663065e+01    1.578786e+00
  1.665344e+01    1.562915e+00
  1.667622e+01    1.507714e+00
  1.669900e+01    1.475665e+00
  1.672179e+01    1.515036e+00
  1.674457e+01    1.468959e+00
  1.676735e+01    1.476466e+00
  1.679013e+01    1.548455e+00
  1.681292e+01    1.512528e+00
  1.683570e+01    1.466517e+00
  1.685848e+01    1.488727e+00
  1.688127e+01    1.457733e+00
  1.690405e+01    1.469993e+00
  1.692683e+01    1.467923e+00
  1.694961e+01    1.449544e+00
  1.697240e+01    1.434502e+00
  1.699518e+01    1.498353e+00
  1.701796e+01    1.493665e+00
  1.704075e+01    1.533188e+00
  1.706353e+01    1.459165e+00
  1.708631e+01    1.484944e+00
  1.710909e+01    1.571316e+00
  1.713188e+01    1.520888e+00
  1.715466e+01    1.527302e+00
  1.717744e+01    1.559116e+00
  1.720022e+01    1.472738e+00
  1.722301e+01    1.495065e+00
  1.724579e+01    1.497849e+00
  1.726857e+01    1.461115e+00
  1.729136e+01    1.462193e+00
  1.731414e+01    1.579695e+00
  1.733692e+01    1.545933e+00
  1.735970e+01    1.544202e+00
  1.738249e+01    1.543300e+00
  1.740527e+01    1.582851e+00
  1.742805e+01    1.505989e+00
  1.745084e+01    1.552466e+00
  1.747362e+01    1.523564e+00
  1.749640e+01    1.505431e+00
  1.751918e+01    1.564372e+00
  1.754197e+01    1.434890e+00
  1.756475e+01    1.479972e+00
  1.758753e+01    1.520654e+00
  1.761032e+01    1.571244e+00
  1.763310e+01    1.472600e+00
  1.765588e+01    1.477456e+00
  1.767866e+01    1.478191e+00
  1.770145e+01    1.500163e+00
  1.772423e+01    1.457567e+00
  1.774701e+01    1.471322e+00
  1.776979e+01    1.491081e+00
  1.779258e+01    1.504927e+00
  1.781536e+01    1.522016e+00
  1.783814e+01    1.553579e+00
  1.786093e+01    1.513240e+00
  1.788371e+01    1.513875e+00
  1.790649e+01    1.526956e+00
  1.792927e+01    1.513678e+00
  1.795206e+01    1.497781e+00
  1.797484e+01    1.503206e+00
  1.799762e+01    1.490229e+00
  1.802041e+01    1.495469e+00
  1.804319e+01    1.533337e+00
  1.806597e+01    1.521030e+00
  1.808875e+01    1.577537e+00
  1.811154e+01    1.572031e+00
  1.813432e+01    1.520877e+00
  1.815710e+01    1.522782e+00
  1.817989e+01    1.490278e+00
  1.820267e+01    1.526733e+00
  1.822545e+01    1.575352e+00
  1.824823e+01    1.469962e+00
  1.827102e+01    1.434824e+00
  1.829380e+01    1.480556e+00
  1.831658e+01    1.522737e+00
  1.833936e+01    1.506523e+00
  1.836215e+01    1.523846e+00
  1.838493e+01    1.483620e+00
  1.840771e+01    1.459687e+00
  1.843050e+01    1.495956e+00
  1.845328e+01    1.496931e+00
  1.847606e+01    1.454895e+00
  1.849884e+01    1.434677e+00
  1.852163e+01    1.483762e+00
  1.854441e+01    1.532497e+00
  1.856719e+01    1.500846e+00
  1.858998e+01    1.428334e+00
  1.861276e+01    1.465854e+00
  1.863554e+01    1.499763e+00
  1.865832e+01    1.491119e+00
  1.868111e+01    1.504203e+00
  1.870389e+01    1.449633e+00
  1.872667e+01    1.516863e+00
  1.874945e+01    1.523728e+00
  1.877224e+01    1.497361e+00
  1.879502e+01    1.442609e+00
  1.881780e+01    1.471633e+00
  1.884059e+01    1.506697e+00
  1.886337e+01    1.453919e+00
  1.888615e+01    1.486929e+00
  1.890893e+01    1.468925e+00
  1.893172e+01    1.520800e+00
  1.895450e+01    1.544107e+00
  1.897728e+01    1.500563e+00
  1.900007e+01    1.450127e+00
  1.902285e+01    1.447468e+00
  1.904563e+01    1.467848e+00
  1.906841e+01    1.428818e+00
  1.909120e+01    1.510933e+00
  1.911398e+01    1.501626e+00
  1.913676e+01    1.459660e+00
  1.915955e+01    1.438043e+00
  1.918233e+01    1.486434e+00
  1.920511e+01    1.465747e+00
  1.922789e+01    1.503156e+00
  1.925068e+01    1.496018e+00
  1.927346e+01    1.507159e+00
  1.929624e+01    1.576162e+00
  1.931902e+01    1.555258e+00
  1.934181e+01    1.495986e+00
  1.936459e+01    1.478735e+00
  1.938737e+01    1.450906e+00
  1.941016e+01    1.420079e+00
  1.943294e+01    1.436739e+00
  1.945572e+01    1.405896e+00
  1.947850e+01    1.390127e+00
  1.950129e+01    1.483864e+00
  1.952407e+01    1.489115e+00
  1.954685e+01    1.451636e+00
  1.956964e+01    1.476876e+00
  1.959242e+01    1.486914e+00
  1.961520e+01    1.433820e+00
  1.963798e+01    1.437036e+00
  1.966077e+01    1.453938e+00
  1.968355e+01    1.482558e+00
  1.970633e+01    1.429632e+00
  1.972912e+01    1.449029e+00
  1.975190e+01    1.442882e+00
  1.977468e+01    1.402119e+00
  1.979746e+01    1.378340e+00
  1.982025e+01    1.401835e+00
  1.984303e+01    1.335938e+00
  1.986581e+01    1.371538e+00
  1.988859e+01    1.434580e+00
  1.991138e+01    1.444908e+00
  1.993416e+01    1.470124e+00
  1.995694e+01    1.457066e+00
  1.997973e+01    1.478314e+00
  2.000251e+01    1.471851e+00
  2.002529e+01    1.407709e+00
  2.004807e+01    1.426164e+00
  2.007086e+01    1.438658e+00
  2.009364e+01    1.408367e+00
  2.011642e+01    1.365671e+00
  2.013921e+01    1.371812e+00
  2.016199e+01    1.424635e+00
  2.018477e+01    1.400008e+00
  2.020755e+01    1.406111e+00
  2.023034e+01    1.400483e+00
  2.025312e+01    1.414442e+00
  2.027590e+01    1.451554e+00
  2.029868e+01    1.509632e+00
  2.032147e+01    1.477902e+00
  2.034425e+01    1.486500e+00
  2.036703e+01    1.502493e+00
  2.038982e+01    1.489026e+00
  2.041260e+01    1.424920e+00
  2.043538e+01    1.428121e+00
  2.045816e+01    1.398880e+00
  2.048095e+01    1.411631e+00
  2.050373e+01    1.440220e+00
  2.052651e+01    1.456229e+00
  2.054930e+01    1.385559e+00
  2.057208e+01    1.379767e+00
  2.059486e+01    1.412881e+00
  2.061764e+01    1.456500e+00
  2.064043e+01    1.370529e+00
  2.066321e+01    1.373008e+00
  2.068599e+01    1.406361e+00
  2.070878e+01    1.388504e+00
  2.073156e+01    1.372733e+00
  2.075434e+01    1.445605e+00
  2.077712e+01    1.353727e+00
  2.079991e+01    1.373297e+00
  2.082269e+01    1.384152e+00
  2.084547e+01    1.386444e+00
  2.086825e+01    1.398095e+00
  2.089104e+01    1.476443e+00
  2.091382e+01    1.405718e+00
  2.093660e+01    1.386777e+00
  2.095939e+01    1.367208e+00
  2.098217e+01    1.399281e+00
  2.100495e+01    1.400589e+00
  2.102773e+01    1.386487e+00
  2.105052e+01    1.395092e+00
  2.107330e+01    1.417465e+00
  2.109608e+01    1.345257e+00
  2.111887e+01    1.359844e+00
  2.114165e+01    1.385503e+00
  2.116443e+01    1.322966e+00
  2.118721e+01    1.394324e+00
  2.121000e+01    1.415410e+00
  2.123278e+01    1.364185e+00
  2.125556e+01    1.383963e+00
  2.127835e+01    1.380868e+00
  2.130113e+01    1.448332e+00
  2.132391e+01    1.437164e+00
  2.134669e+01    1.436150e+00
  2.136948e+01    1.392715e+00
  2.139226e+01    1.357430e+00
  2.141504e+01    1.425877e+00
  2.143782e+01    1.427227e+00
  2.146061e+01    1.433451e+00
  2.148339e+01    1.412524e+00
  2.150617e+01    1.365667e+00
  2.152896e+01    1.374316e+00
  2.155174e+01    1.400914e+00
  2.157452e+01    1.376328e+00
  2.159730e+01    1.361413e+00
  2.162009e+01    1.400576e+00
  2.164287e+01    1.358308e+00
  2.166565e+01    1.372717e+00
  2.168844e+01    1.425444e+00
  2.171122e+01    1.380617e+00
  2.173400e+01    1.363263e+00
  2.175678e+01    1.392202e+00
  2.177957e+01    1.394547e+00
  2.180235e+01    1.376079e+00
  2.182513e+01    1.364518e+00
  2.184791e+01    1.380858e+00
  2.187070e+01    1.400604e+00
  2.189348e+01    1.356266e+00
  2.191626e+01    1.357762e+00
  2.193905e+01    1.383255e+00
  2.196183e+01    1.370573e+00
  2.198461e+01    1.369834e+00
  2.200739e+01    1.359569e+00
  2.203018e+01    1.351942e+00
  2.205296e+01    1.410917e+00
  2.207574e+01    1.389416e+00
  2.209853e+01    1.379369e+00
  2.212131e+01    1.335859e+00
  2.214409e+01    1.411969e+00
  2.216687e+01    1.349946e+00
  2.218966e+01    1.324890e+00
  2.221244e+01    1.388591e+00
  2.223522e+01    1.377937e+00
  2.225801e+01    1.397011e+00
  2.228079e+01    1.379748e+00
  2.230357e+01    1.373472e+00
  2.232635e+01    1.319049e+00
  2.234914e+01    1.338104e+00
  2.237192e+01    1.407904e+00
  2.239470e+01    1.376242e+00
  2.241748e+01    1.404414e+00
  2.244027e+01    1.353918e+00
  2.246305e+01    1.357634e+00
  2.248583e+01    1.356275e+00
  2.250862e+01    1.446875e+00
  2.253140e+01    1.391448e+00
  2.255418e+01    1.355529e+00
  2.257696e+01    1.375171e+00
  2.259975e+01    1.375466e+00
  2.262253e+01    1.389546e+00
  2.264531e+01    1.377789e+00
  2.266810e+01    1.351250e+00
  2.269088e+01    1.356941e+00
  2.271366e+01    1.365808e+00
  2.273644e+01    1.366218e+00
  2.275923e+01    1.376769e+00
  2.278201e+01    1.363724e+00
  2.280479e+01    1.313688e+00
  2.282758e+01    1.361287e+00
  2.285036e+01    1.386787e+00
  2.287314e+01    1.379589e+00
  2.289592e+01    1.346182e+00
  2.291871e+01    1.360340e+00
  2.294149e+01    1.380307e+00
  2.296427e+01    1.376385e+00
  2.298705e+01    1.369064e+00
  2.300984e+01    1.343125e+00
  2.303262e+01    1.330534e+00
  2.305540e+01    1.388919e+00
  2.307819e+01    1.315765e+00
  2.310097e+01    1.361539e+00
  2.312375e+01    1.370235e+00
  2.314653e+01    1.333846e+00
  2.316932e+01    1.347683e+00
  2.319210e+01    1.405853e+00
  2.321488e+01    1.338035e+00
  2.323767e+01    1.344601e+00
  2.326045e+01    1.405624e+00
  2.328323e+01    1.355412e+00
  2.330601e+01    1.353824e+00
  2.332880e+01    1.386301e+00
  2.335158e+01    1.354478e+00
  2.337436e+01    1.297435e+00
  2.339714e+01    1.316762e+00
  2.341993e+01    1.363787e+00
  2.344271e+01    1.359811e+00
  2.346549e+01    1.355726e+00
  2.348828e+01    1.400871e+00
  2.351106e+01    1.321575e+00
  2.353384e+01    1.294253e+00
  2.355662e+01    1.359576e+00
  2.357941e+01    1.370167e+00
  2.360219e+01    1.341730e+00
  2.362497e+01    1.356744e+00
  2.364776e+01    1.324558e+00
  2.367054e+01    1.362464e+00
  2.369332e+01    1.360034e+00
  2.371610e+01    1.317604e+00
  2.373889e+01    1.340284e+00
  2.376167e+01    1.350181e+00
  2.378445e+01    1.310591e+00
  2.380724e+01    1.347831e+00
  2.383002e+01    1.309907e+00
  2.385280e+01    1.340591e+00
  2.387558e+01    1.344103e+00
  2.389837e+01    1.314468e+00
  2.392115e+01    1.374187e+00
  2.394393e+01    1.312682e+00
  2.396671e+01    1.309711e+00
  2.398950e+01    1.323648e+00
  2.401228e+01    1.323370e+00
  2.403506e+01    1.327000e+00
  2.405785e+01    1.350022e+00
  2.408063e+01    1.332997e+00
  2.410341e+01    1.274266e+00
  2.412619e+01    1.391912e+00
  2.414898e+01    1.357135e+00
  2.417176e+01    1.377306e+00
  2.419454e+01    1.314568e+00
  2.421733e+01    1.368238e+00
  2.424011e+01    1.360099e+00
  2.426289e+01    1.333405e+00
  2.428567e+01    1.306915e+00
  2.430846e+01    1.312734e+00
  2.433124e+01    1.382521e+00
  2.435402e+01    1.394878e+00
  2.437681e+01    1.302091e+00
  2.439959e+01    1.335744e+00
  2.442237e+01    1.360577e+00
  2.444515e+01    1.324353e+00
  2.446794e+01    1.293242e+00
  2.449072e+01    1.288854e+00
  2.451350e+01    1.273497e+00
  2.453628e+01    1.308975e+00
  2.455907e+01    1.364729e+00
  2.458185e+01    1.293340e+00
  2.460463e+01    1.299682e+00
  2.462742e+01    1.314317e+00
  2.465020e+01    1.308584e+00
  2.467298e+01    1.368345e+00
  2.469576e+01    1.308217e+00
  2.471855e+01    1.284822e+00
  2.474133e+01    1.311313e+00
  2.476411e+01    1.318547e+00
  2.478690e+01    1.299054e+00
  2.480968e+01    1.308572e+00
  2.483246e+01    1.329112e+00
  2.485524e+01    1.291486e+00
  2.487803e+01    1.278909e+00
  2.490081e+01    1.332274e+00
  2.492359e+01    1.371376e+00
  2.494637e+01    1.349426e+00
  2.496916e+01    1.298280e+00
  2.499194e+01    1.311416e+00
  2.501472e+01    1.296288e+00
  2.503751e+01    1.300588e+00
  2.506029e+01    1.321321e+00
  2.508307e+01    1.334792e+00
  2.510585e+01    1.269309e+00
  2.512864e+01    1.330844e+00
  2.515142e+01    1.283554e+00
  2.517420e+01    1.294761e+00
  2.519699e+01    1.270750e+00
  2.521977e+01    1.242985e+00
  2.524255e+01    1.299049e+00
  2.526533e+01    1.298942e+00
  2.528812e+01    1.326179e+00
  2.531090e+01    1.292737e+00
  2.533368e+01    1.312570e+00
  2.535647e+01    1.287658e+00
  2.537925e+01    1.321275e+00
  2.540203e+01    1.293324e+00
  2.542481e+01    1.304395e+00
  2.544760e+01    1.315383e+00
  2.547038e+01    1.289662e+00
  2.549316e+01    1.352141e+00
  2.551594e+01    1.300911e+00
  2.553873e+01    1.282959e+00
  2.556151e+01    1.291228e+00
  2.558429e+01    1.290390e+00
  2.560708e+01    1.326803e+00
  2.562986e+01    1.307094e+00
  2.565264e+01    1.284877e+00
  2.567542e+01    1.322964e+00
  2.569821e+01    1.318338e+00
  2.572099e+01    1.310414e+00
  2.574377e+01    1.262251e+00
  2.576656e+01    1.287419e+00
  2.578934e+01    1.288327e+00
  2.581212e+01    1.316092e+00
  2.583490e+01    1.311477e+00
  2.585769e+01    1.318465e+00
  2.588047e+01    1.329627e+00
  2.590325e+01    1.325629e+00
  2.592604e+01    1.321402e+00
  2.594882e+01    1.314241e+00
  2.597160e+01    1.300449e+00
  2.599438e+01    1.295913e+00
  2.601717e+01    1.276415e+00
  2.603995e+01    1.266868e+00
  2.606273e+01    1.250566e+00
  2.608551e+01    1.280777e+00
  2.610830e+01    1.272713e+00
  2.613108e+01    1.304683e+00
  2.615386e+01    1.299286e+00
  2.617665e+01    1.359073e+00
  2.619943e+01    1.290517e+00
  2.622221e+01    1.278131e+00
  2.624499e+01    1.305416e+00
  2.626778e+01    1.359996e+00
  2.629056e+01    1.323412e+00
  2.631334e+01    1.321468e+00
  2.633613e+01    1.353530e+00
  2.635891e+01    1.269539e+00
  2.638169e+01    1.277532e+00
  2.640447e+01    1.315205e+00
  2.642726e+01    1.287097e+00
  2.645004e+01    1.254884e+00
  2.647282e+01    1.306612e+00
  2.649560e+01    1.330647e+00
  2.651839e+01    1.345208e+00
  2.654117e+01    1.307313e+00
  2.656395e+01    1.277487e+00
  2.658674e+01    1.311603e+00
  2.660952e+01    1.376939e+00
  2.663230e+01    1.298519e+00
  2.665508e+01    1.279838e+00
  2.667787e+01    1.283759e+00
  2.670065e+01    1.322139e+00
  2.672343e+01    1.311576e+00
  2.674622e+01    1.349674e+00
  2.676900e+01    1.348110e+00
  2.679178e+01    1.340298e+00
  2.681456e+01    1.312058e+00
  2.683735e+01    1.292990e+00
  2.686013e+01    1.337585e+00
  2.688291e+01    1.312898e+00
  2.690570e+01    1.312671e+00
  2.692848e+01    1.282835e+00
  2.695126e+01    1.325554e+00
  2.697404e+01    1.311570e+00
  2.699683e+01    1.331659e+00
  2.701961e+01    1.329676e+00
  2.704239e+01    1.325496e+00
  2.706517e+01    1.365977e+00
  2.708796e+01    1.341402e+00
  2.711074e+01    1.376174e+00
  2.713352e+01    1.359167e+00
  2.715631e+01    1.389999e+00
  2.717909e+01    1.416654e+00
  2.720187e+01    1.396762e+00
  2.722465e+01    1.399601e+00
  2.724744e+01    1.431051e+00
  2.727022e+01    1.415069e+00
  2.729300e+01    1.363959e+00
  2.731579e+01    1.372661e+00
  2.733857e+01    1.424633e+00
  2.736135e+01    1.407571e+00
  2.738413e+01    1.445984e+00
  2.740692e+01    1.453941e+00
  2.742970e+01    1.423553e+00
  2.745248e+01    1.431749e+00
  2.747527e+01    1.453829e+00
  2.749805e+01    1.422291e+00
  2.752083e+01    1.447668e+00
  2.754361e+01    1.397386e+00
  2.756640e+01    1.445994e+00
  2.758918e+01    1.450674e+00
  2.761196e+01    1.395576e+00
  2.763474e+01    1.406524e+00
  2.765753e+01    1.391235e+00
  2.768031e+01    1.407763e+00
  2.770309e+01    1.391610e+00
  2.772588e+01    1.411466e+00
  2.774866e+01    1.390610e+00
  2.777144e+01    1.353087e+00
  2.779422e+01    1.303190e+00
  2.781701e+01    1.322526e+00
  2.783979e+01    1.343845e+00
  2.786257e+01    1.365473e+00
  2.788536e+01    1.349992e+00
  2.790814e+01    1.329905e+00
  2.793092e+01    1.362293e+00
  2.795370e+01    1.350763e+00
  2.797649e+01    1.364579e+00
  2.799927e+01    1.389760e+00
  2.802205e+01    1.356468e+00
  2.804483e+01    1.369006e+00
  2.806762e+01    1.373176e+00
  2.809040e+01    1.326822e+00
  2.811318e+01    1.313257e+00
  2.813597e+01    1.383038e+00
  2.815875e+01    1.357898e+00
  2.818153e+01    1.351316e+00
  2.820431e+01    1.291007e+00
  2.822710e+01    1.358394e+00
  2.824988e+01    1.365299e+00
  2.827266e+01    1.334187e+00
  2.829545e+01    1.377796e+00
  2.831823e+01    1.424335e+00
  2.834101e+01    1.386747e+00
  2.836379e+01    1.329487e+00
  2.838658e+01    1.335462e+00
  2.840936e+01    1.415068e+00
  2.843214e+01    1.419989e+00
  2.845493e+01    1.328841e+00
  2.847771e+01    1.315834e+00
  2.850049e+01    1.345140e+00
  2.852327e+01    1.379370e+00
  2.854606e+01    1.373520e+00
  2.856884e+01    1.321434e+00
  2.859162e+01    1.323927e+00
  2.861440e+01    1.350772e+00
  2.863719e+01    1.361382e+00
  2.865997e+01    1.403047e+00
  2.868275e+01    1.426653e+00
  2.870554e+01    1.385747e+00
  2.872832e+01    1.375711e+00
  2.875110e+01    1.344440e+00
  2.877388e+01    1.335545e+00
  2.879667e+01    1.318943e+00
  2.881945e+01    1.371626e+00
  2.884223e+01    1.334632e+00
  2.886502e+01    1.379051e+00
  2.888780e+01    1.375145e+00
  2.891058e+01    1.348627e+00
  2.893336e+01    1.345265e+00
  2.895615e+01    1.393297e+00
  2.897893e+01    1.332584e+00
  2.900171e+01    1.319935e+00
  2.902450e+01    1.360067e+00
  2.904728e+01    1.278957e+00
  2.907006e+01    1.287304e+00
  2.909284e+01    1.327052e+00
  2.911563e+01    1.315368e+00
  2.913841e+01    1.390533e+00
  2.916119e+01    1.300371e+00
  2.918397e+01    1.328986e+00
  2.920676e+01    1.342004e+00
  2.922954e+01    1.376533e+00
  2.925232e+01    1.384054e+00
  2.927511e+01    1.358241e+00
  2.929789e+01    1.356450e+00
  2.932067e+01    1.286491e+00
  2.934345e+01    1.346789e+00
  2.936624e+01    1.303081e+00
  2.938902e+01    1.350662e+00
  2.941180e+01    1.335847e+00
  2.943459e+01    1.359805e+00
  2.945737e+01    1.332227e+00
  2.948015e+01    1.304843e+00
  2.950293e+01    1.327428e+00
  2.952572e+01    1.324494e+00
  2.954850e+01    1.328957e+00
  2.957128e+01    1.355840e+00
  2.959407e+01    1.292778e+00
  2.961685e+01    1.315636e+00
  2.963963e+01    1.350489e+00
  2.966241e+01    1.344029e+00
  2.968520e+01    1.325934e+00
  2.970798e+01    1.331557e+00
  2.973076e+01    1.273352e+00
  2.975354e+01    1.311565e+00
  2.977633e+01    1.330588e+00
  2.979911e+01    1.333834e+00
  2.982189e+01    1.307942e+00
  2.984468e+01    1.319307e+00
  2.986746e+01    1.297183e+00
  2.989024e+01    1.281765e+00
  2.991302e+01    1.274407e+00
  2.993581e+01    1.288692e+00
  2.995859e+01    1.327231e+00
  2.998137e+01    1.324213e+00
  3.000416e+01    1.367309e+00
  3.002694e+01    1.303717e+00
  3.004972e+01    1.291462e+00
  3.007250e+01    1.308925e+00
  3.009529e+01    1.288093e+00
  3.011807e+01    1.286702e+00
  3.014085e+01    1.304091e+00
  3.016363e+01    1.333522e+00
  3.018642e+01    1.297529e+00
  3.020920e+01    1.296435e+00
  3.023198e+01    1.331377e+00
  3.025477e+01    1.303101e+00
  3.027755e+01    1.350796e+00
  3.030033e+01    1.243864e+00
  3.032311e+01    1.347704e+00
  3.034590e+01    1.367259e+00
  3.036868e+01    1.347333e+00
  3.039146e+01    1.388717e+00
  3.041425e+01    1.383990e+00
  3.043703e+01    1.350082e+00
  3.045981e+01    1.309118e+00
  3.048259e+01    1.271018e+00
  3.050538e+01    1.322194e+00
  3.052816e+01    1.330804e+00
  3.055094e+01    1.316190e+00
  3.057373e+01    1.309923e+00
  3.059651e+01    1.309576e+00
  3.061929e+01    1.265422e+00
  3.064207e+01    1.360707e+00
  3.066486e+01    1.364565e+00
  3.068764e+01    1.300514e+00
  3.071042e+01    1.318641e+00
  3.073320e+01    1.309430e+00
  3.075599e+01    1.285372e+00
  3.077877e+01    1.270352e+00
  3.080155e+01    1.287355e+00
  3.082434e+01    1.279164e+00
  3.084712e+01    1.307414e+00
  3.086990e+01    1.324450e+00
  3.089268e+01    1.241258e+00
  3.091547e+01    1.258827e+00
  3.093825e+01    1.308617e+00
  3.096103e+01    1.314091e+00
  3.098382e+01    1.247189e+00
  3.100660e+01    1.307104e+00
  3.102938e+01    1.238478e+00
  3.105216e+01    1.270540e+00
  3.107495e+01    1.227543e+00
  3.109773e+01    1.233955e+00
  3.112051e+01    1.276759e+00
  3.114330e+01    1.315297e+00
  3.116608e+01    1.314217e+00
  3.118886e+01    1.273168e+00
  3.121164e+01    1.293942e+00
  3.123443e+01    1.285211e+00
  3.125721e+01    1.265931e+00
  3.127999e+01    1.218210e+00
  3.130277e+01    1.324656e+00
  3.132556e+01    1.270175e+00
  3.134834e+01    1.252030e+00
  3.137112e+01    1.269989e+00
  3.139391e+01    1.280765e+00
  3.141669e+01    1.220910e+00
  3.143947e+01    1.221925e+00
  3.146225e+01    1.265172e+00
  3.148504e+01    1.215731e+00
  3.150782e+01    1.291837e+00
  3.153060e+01    1.268932e+00
  3.155339e+01    1.251947e+00
  3.157617e+01    1.211582e+00
  3.159895e+01    1.231724e+00
  3.162173e+01    1.189941e+00
  3.164452e+01    1.241106e+00
  3.166730e+01    1.297502e+00
  3.169008e+01    1.203184e+00
  3.171286e+01    1.220839e+00
  3.173565e+01    1.175076e+00
  3.175843e+01    1.281834e+00
  3.178121e+01    1.181269e+00
  3.180400e+01    1.293438e+00
  3.182678e+01    1.241706e+00
  3.184956e+01    1.171855e+00
  3.187234e+01    1.164327e+00
  3.189513e+01    1.183726e+00
  3.191791e+01    1.220414e+00
  3.194069e+01    1.212550e+00
  3.196348e+01    1.198349e+00
  3.198626e+01    1.156804e+00
  3.200904e+01    1.222852e+00
  3.203182e+01    1.249159e+00
  3.205461e+01    1.292133e+00
  3.207739e+01    1.217887e+00
  3.210017e+01    1.180433e+00
  3.212296e+01    1.203365e+00
  3.214574e+01    1.195265e+00
  3.216852e+01    1.152304e+00
  3.219130e+01    1.168874e+00
  3.221409e+01    1.163766e+00
  3.223687e+01    1.210525e+00
  3.225965e+01    1.155369e+00
  3.228243e+01    1.184155e+00
  3.230522e+01    1.212541e+00
  3.232800e+01    1.248596e+00
  3.235078e+01    1.210181e+00
  3.237357e+01    1.113536e+00
  3.239635e+01    1.149320e+00
  3.241913e+01    1.226589e+00
  3.244191e+01    1.191582e+00
  3.246470e+01    1.286128e+00
  3.248748e+01    1.158065e+00
  3.251026e+01    1.096611e+00
  3.253305e+01    1.188963e+00
  3.255583e+01    1.247983e+00
  3.257861e+01    1.220496e+00
  3.260139e+01    1.208661e+00
  3.262418e+01    1.285478e+00
  3.264696e+01    1.212501e+00
  3.266974e+01    1.251576e+00
  3.269253e+01    1.231103e+00
  3.271531e+01    1.118308e+00
  3.273809e+01    1.222184e+00
  3.276087e+01    1.193763e+00
  3.278366e+01    1.177886e+00
  3.280644e+01    1.168667e+00
  3.282922e+01    1.133158e+00
  3.285200e+01    1.106625e+00
  3.287479e+01    1.093553e+00
  3.289757e+01    1.298032e+00
  3.292035e+01    1.203541e+00
  3.294314e+01    1.157687e+00
  3.296592e+01    1.220862e+00
  3.298870e+01    1.142308e+00
  3.301148e+01    1.226041e+00
  3.303427e+01    1.214274e+00
  3.305705e+01    1.307082e+00
  3.307983e+01    1.330435e+00
  3.310262e+01    1.317960e+00
  3.312540e+01    1.239921e+00
  3.314818e+01    1.290391e+00
  3.317096e+01    1.181538e+00
  3.319375e+01    1.187249e+00
  3.321653e+01    1.201221e+00
  3.323931e+01    1.160465e+00
  3.326209e+01    1.314516e+00
  3.328488e+01    1.178498e+00
  3.330766e+01    8.436123e-01
  3.333044e+01    1.103935e+00
  3.335323e+01    1.236500e+00
  3.337601e+01    1.046856e+00
  3.339879e+01    1.074067e+00
  3.342157e+01    1.274847e+00
  3.344436e+01    1.132405e+00
  3.346714e+01    1.422447e+00
  3.348992e+01    6.273181e-01
  3.351271e+01    5.062866e-01
  3.353549e+01    0.000000e+00
  3.355827e+01    0.000000e+00
  3.358105e+01    0.000000e+00
  3.360384e+01    0.000000e+00
  3.362662e+01    0.000000e+00
  3.364940e+01    0.000000e+00
  3.367219e+01    0.000000e+00
  3.369497e+01    0.000000e+00
  3.371775e+01    0.000000e+00
