# == pyFAI calibration ==
# Distance Sample to Detector: 0.21311058206280517 m
# PONI: 2.037e-01, 1.993e-01 m
# Rotations: -0.005459 0.000134 0.000000 rad
# 
# == Fit2d calibration ==
# Distance Sample-beamCenter: 213.114 mm
# Center: x=1002.134, y=1018.730 pix
# Tilt: 0.313 deg  TiltPlanRot: 1.411 deg
# 
# Detector Perkin detector	 PixelSize= 2.000e-04, 2.000e-04 m
#    Detector has a mask: False 
#    Detector has a dark current: False 
#    detector has a flat field: False 
# 
# Wavelength: 1.675e-11 m
# Mask applied: provided
# Dark current applied: False
# Flat field applied: False
# Polarization factor: None
# Normalization factor: 1.0
# --> data/chi_bkgsub_true/C_Tatania5-27.5-average.chi
#        q_A^-1             I 
  2.199784e-02    1.033164e+00
  4.478064e-02    1.779552e+00
  6.756343e-02    1.854896e+00
  9.034623e-02    1.245772e+00
  1.131290e-01    1.210715e+00
  1.359118e-01    1.347666e+00
  1.586946e-01    1.601723e+00
  1.814774e-01    1.513098e+00
  2.042602e-01    1.619890e+00
  2.270430e-01    2.716575e+00
  2.498258e-01    3.981675e+00
  2.726086e-01    9.777613e+00
  2.953914e-01    3.350841e+01
  3.181742e-01    7.522230e+01
  3.409570e-01    8.808094e+01
  3.637398e-01    5.762834e+01
  3.865226e-01    4.087606e+01
  4.093054e-01    4.343428e+01
  4.320881e-01    3.504747e+01
  4.548709e-01    2.007016e+01
  4.776537e-01    1.116731e+01
  5.004365e-01    9.179993e+00
  5.232193e-01    8.682835e+00
  5.460021e-01    9.432779e+00
  5.687849e-01    1.095430e+01
  5.915677e-01    1.048755e+01
  6.143505e-01    9.101433e+00
  6.371333e-01    7.819480e+00
  6.599161e-01    6.707665e+00
  6.826989e-01    6.528725e+00
  7.054817e-01    6.466236e+00
  7.282645e-01    6.074457e+00
  7.510473e-01    5.806728e+00
  7.738301e-01    5.972107e+00
  7.966129e-01    5.802324e+00
  8.193956e-01    5.961459e+00
  8.421784e-01    5.836993e+00
  8.649612e-01    5.294271e+00
  8.877440e-01    4.353148e+00
  9.105268e-01    4.515984e+00
  9.333096e-01    4.580244e+00
  9.560924e-01    4.239133e+00
  9.788752e-01    3.801256e+00
  1.001658e+00    3.984757e+00
  1.024441e+00    3.850975e+00
  1.047224e+00    3.388002e+00
  1.070006e+00    3.024530e+00
  1.092789e+00    3.011598e+00
  1.115572e+00    3.641480e+00
  1.138355e+00    2.946526e+00
  1.161138e+00    2.526573e+00
  1.183920e+00    2.304884e+00
  1.206703e+00    2.532151e+00
  1.229486e+00    3.449002e+00
  1.252269e+00    2.767659e+00
  1.275052e+00    2.065234e+00
  1.297834e+00    2.047601e+00
  1.320617e+00    2.306718e+00
  1.343400e+00    1.795827e+00
  1.366183e+00    1.989946e+00
  1.388966e+00    1.780249e+00
  1.411748e+00    2.122077e+00
  1.434531e+00    3.034771e+00
  1.457314e+00    1.339359e+00
  1.480097e+00    3.061894e+00
  1.502879e+00    5.391846e+00
  1.525662e+00    1.068460e+00
  1.548445e+00    8.936558e-01
  1.571228e+00    4.079380e-01
  1.594011e+00    2.963922e-01
  1.616793e+00    4.043036e-01
  1.639576e+00    1.290853e+00
  1.662359e+00    1.564094e+00
  1.685142e+00    1.859404e+00
  1.707925e+00    7.482975e+00
  1.730707e+00    1.542169e+01
  1.753490e+00    2.682477e+01
  1.776273e+00    3.750432e+01
  1.799056e+00    3.670580e+01
  1.821839e+00    2.599949e+01
  1.844621e+00    1.489854e+01
  1.867404e+00    7.443955e+00
  1.890187e+00    4.361445e+00
  1.912970e+00    1.142471e+00
  1.935753e+00    1.142471e+00
  1.958535e+00    1.142471e+00
  1.981318e+00    3.364773e-01
  2.004101e+00    3.159288e-01
  2.026884e+00    1.062007e-02
  2.049667e+00    8.747647e-03
  2.072449e+00    0.000000e+00
  2.095232e+00    1.328781e+00
  2.118015e+00    9.978287e-01
  2.140798e+00    8.366683e-01
  2.163581e+00    7.603391e-01
  2.186363e+00    7.217421e-01
  2.209146e+00    7.322794e-01
  2.231929e+00    1.046986e+00
  2.254712e+00    1.135938e+00
  2.277494e+00    1.188157e+00
  2.300277e+00    1.202498e+00
  2.323060e+00    2.393692e+00
  2.345843e+00    2.393692e+00
  2.368626e+00    2.393692e+00
  2.391408e+00    4.254303e-01
  2.414191e+00    4.254303e-01
  2.436974e+00    4.254303e-01
  2.459757e+00    2.889374e+00
  2.482540e+00    2.889374e+00
  2.505322e+00    1.809072e+00
  2.528105e+00    7.046967e-01
  2.550888e+00    7.046967e-01
  2.573671e+00    2.847473e+00
  2.596454e+00    2.817998e+00
  2.619236e+00    1.171091e+00
  2.642019e+00    1.032256e+00
  2.664802e+00    1.988600e+00
  2.687585e+00    1.185485e+00
  2.710368e+00    8.275970e-01
  2.733150e+00    1.692806e+00
  2.755933e+00    1.412352e+00
  2.778716e+00    8.765276e-01
  2.801499e+00    8.918020e-01
  2.824282e+00    1.088632e+00
  2.847064e+00    1.133179e+00
  2.869847e+00    2.893086e-01
  2.892630e+00    1.924974e-01
  2.915413e+00    2.900318e+00
  2.938196e+00    2.621940e+00
  2.960978e+00    2.586950e+00
  2.983761e+00    0.000000e+00
  3.006544e+00    3.183594e-01
  3.029327e+00    4.784252e-01
  3.052110e+00    6.088578e-01
  3.074892e+00    1.498136e+00
  3.097675e+00    1.642517e+00
  3.120458e+00    0.000000e+00
  3.143241e+00    0.000000e+00
  3.166023e+00    7.654572e-01
  3.188806e+00    7.654572e-01
  3.211589e+00    3.393028e+00
  3.234372e+00    2.500625e+00
  3.257155e+00    2.151358e+00
  3.279937e+00    3.054750e+00
  3.302720e+00    3.688005e+00
  3.325503e+00    3.566736e+00
  3.348286e+00    2.938578e+00
  3.371069e+00    2.200487e+00
  3.393851e+00    1.663182e+00
  3.416634e+00    1.673283e+00
  3.439417e+00    1.728915e+00
  3.462200e+00    4.703256e-01
  3.484983e+00    6.099119e-01
  3.507765e+00    6.958468e-01
  3.530548e+00    1.896456e-02
  3.553331e+00    8.530211e-01
  3.576114e+00    1.156651e+00
  3.598897e+00    1.102506e+00
  3.621679e+00    1.448883e+00
  3.644462e+00    2.643436e+00
  3.667245e+00    3.654853e+00
  3.690028e+00    4.644258e+00
  3.712811e+00    5.463532e+00
  3.735593e+00    5.449362e+00
  3.758376e+00    4.694869e+00
  3.781159e+00    3.834364e+00
  3.803942e+00    2.680798e+00
  3.826725e+00    2.486808e+00
  3.849507e+00    2.522966e+00
  3.872290e+00    3.474518e+00
  3.895073e+00    2.019090e+00
  3.917856e+00    2.363639e+00
  3.940638e+00    2.067132e+00
  3.963421e+00    1.344729e+00
  3.986204e+00    7.780803e-01
  4.008987e+00    1.018416e+00
  4.031770e+00    1.468881e+00
  4.054552e+00    5.650011e-01
  4.077335e+00    6.415940e-01
  4.100118e+00    7.192116e-01
  4.122901e+00    4.729083e-01
  4.145684e+00    9.583838e-01
  4.168466e+00    1.277694e+00
  4.191249e+00    1.180685e+00
  4.214032e+00    1.273712e+00
  4.236815e+00    1.317469e+00
  4.259598e+00    9.755545e-01
  4.282380e+00    8.309757e-01
  4.305163e+00    4.933777e-01
  4.327946e+00    8.345171e-01
  4.350729e+00    8.187928e-01
  4.373512e+00    0.000000e+00
  4.396294e+00    0.000000e+00
  4.419077e+00    0.000000e+00
  4.441860e+00    0.000000e+00
  4.464643e+00    0.000000e+00
  4.487426e+00    0.000000e+00
  4.510208e+00    0.000000e+00
  4.532991e+00    2.143942e+00
  4.555774e+00    2.174563e+00
  4.578557e+00    0.000000e+00
  4.601340e+00    1.550446e+00
  4.624122e+00    1.658562e+00
  4.646905e+00    1.790422e+00
  4.669688e+00    1.557286e+00
  4.692471e+00    1.187481e+00
  4.715253e+00    4.078387e-01
  4.738036e+00    4.258083e-01
  4.760819e+00    2.696228e-02
  4.783602e+00    2.696228e-02
  4.806385e+00    1.453725e+00
  4.829167e+00    1.522961e+00
  4.851950e+00    1.927338e-01
  4.874733e+00    5.591905e-01
  4.897516e+00    7.796260e-01
  4.920299e+00    1.257566e+00
  4.943081e+00    1.353055e+00
  4.965864e+00    1.372443e+00
  4.988647e+00    3.295874e-01
  5.011430e+00    3.127441e-01
  5.034213e+00    8.611864e-01
  5.056995e+00    6.577551e-01
  5.079778e+00    8.279660e-01
  5.102561e+00    1.524700e+00
  5.125344e+00    1.859722e+00
  5.148127e+00    1.603841e+00
  5.170909e+00    1.011316e+00
  5.193692e+00    9.697871e-01
  5.216475e+00    1.046440e+00
  5.239258e+00    1.279351e+00
  5.262041e+00    1.042961e+00
  5.284823e+00    1.089591e+00
  5.307606e+00    1.128561e+00
  5.330389e+00    1.297497e+00
  5.353172e+00    1.219852e+00
  5.375955e+00    8.976593e-01
  5.398737e+00    1.188008e-01
  5.421520e+00    2.953402e-01
  5.444303e+00    5.231935e-01
  5.467086e+00    2.896862e-01
  5.489869e+00    1.859894e-01
  5.512651e+00    0.000000e+00
  5.535434e+00    6.362076e-01
  5.558217e+00    1.857154e+00
  5.581000e+00    3.679398e+00
  5.603782e+00    1.231633e+00
  5.626565e+00    4.719020e-01
  5.649348e+00    1.018460e-01
  5.672131e+00    3.103154e-01
  5.694914e+00    5.700752e-01
  5.717696e+00    9.748154e-01
  5.740479e+00    1.342569e+01
  5.763262e+00    5.433791e+01
  5.786045e+00    2.335715e+01
  5.808828e+00    7.944511e-01
  5.831610e+00    7.674418e-01
  5.854393e+00    0.000000e+00
  5.877176e+00    4.564056e-01
  5.899959e+00    1.285089e+00
  5.922742e+00    2.076722e+00
  5.945524e+00    1.171390e+00
  5.968307e+00    1.017850e+00
  5.991090e+00    4.245987e-01
  6.013873e+00    4.836629e-01
  6.036656e+00    6.128213e-01
  6.059438e+00    7.278906e-01
  6.082221e+00    8.552703e-01
  6.105004e+00    8.844720e-01
  6.127787e+00    0.000000e+00
  6.150570e+00    2.105392e+00
  6.173352e+00    2.127821e+00
  6.196135e+00    2.162646e+00
  6.218918e+00    1.315209e+00
  6.241701e+00    1.002656e+00
  6.264484e+00    9.236960e-01
  6.287266e+00    1.657710e+00
  6.310049e+00    1.816440e+00
  6.332832e+00    7.791658e-01
  6.355615e+00    1.169084e+00
  6.378397e+00    1.208323e+00
  6.401180e+00    0.000000e+00
  6.423963e+00    1.478525e+00
  6.446746e+00    1.453400e+00
  6.469529e+00    0.000000e+00
  6.492311e+00    0.000000e+00
  6.515094e+00    4.241475e-01
  6.537877e+00    4.238535e-01
  6.560660e+00    4.283344e-01
  6.583443e+00    4.217373e-01
  6.606225e+00    0.000000e+00
  6.629008e+00    6.577301e-01
  6.651791e+00    6.859379e-01
  6.674574e+00    7.250977e-01
  6.697357e+00    7.306345e-01
  6.720139e+00    7.907410e-01
  6.742922e+00    9.751691e-01
  6.765705e+00    2.223088e+00
  6.788488e+00    1.959240e+00
  6.811271e+00    1.473238e+00
  6.834053e+00    1.021938e+00
  6.856836e+00    9.897989e-01
  6.879619e+00    1.115982e+00
  6.902402e+00    4.393612e-01
  6.925185e+00    9.689839e-01
  6.947967e+00    1.131607e+00
  6.970750e+00    8.909110e-01
  6.993533e+00    1.431171e+00
  7.016316e+00    1.398854e+00
  7.039099e+00    1.648327e+00
  7.061881e+00    1.731554e+00
  7.084664e+00    1.363221e+00
  7.107447e+00    6.719340e-01
  7.130230e+00    1.176605e+00
  7.153013e+00    1.158875e+00
  7.175795e+00    1.150739e+00
  7.198578e+00    1.705920e+00
  7.221361e+00    1.742777e+00
  7.244144e+00    1.812145e+00
  7.266926e+00    1.094324e+00
  7.289709e+00    8.117191e-01
  7.312492e+00    0.000000e+00
  7.335275e+00    1.266318e+00
  7.358058e+00    1.336386e+00
  7.380840e+00    1.554273e+00
  7.403623e+00    1.819729e+00
  7.426406e+00    1.725939e+00
  7.449189e+00    9.205756e-01
  7.471972e+00    1.333276e+00
  7.494754e+00    1.373270e+00
  7.517537e+00    1.286058e+00
  7.540320e+00    9.779840e-01
  7.563103e+00    8.504397e-01
  7.585886e+00    7.919207e-01
  7.608668e+00    1.802855e+00
  7.631451e+00    2.915734e+00
  7.654234e+00    2.248955e+00
  7.677017e+00    1.648637e+00
  7.699800e+00    1.797302e+00
  7.722582e+00    1.712374e+00
  7.745365e+00    1.038077e+00
  7.768148e+00    1.384955e+00
  7.790931e+00    1.726693e+00
  7.813714e+00    7.282048e-01
  7.836496e+00    1.354703e+00
  7.859279e+00    1.641898e+00
  7.882062e+00    1.470786e+00
  7.904845e+00    1.110150e+00
  7.927628e+00    5.072073e-01
  7.950410e+00    7.221292e-01
  7.973193e+00    1.064206e+00
  7.995976e+00    1.307157e+00
  8.018759e+00    1.551268e+00
  8.041541e+00    2.826192e+01
  8.064324e+00    5.299132e+01
  8.087107e+00    6.228445e+00
  8.109890e+00    1.475231e+00
  8.132673e+00    1.164001e+00
  8.155455e+00    6.605784e-01
  8.178238e+00    5.991070e-01
  8.201021e+00    4.381586e-01
  8.223804e+00    2.356855e-01
  8.246587e+00    4.090560e+00
  8.269369e+00    6.988304e+00
  8.292152e+00    8.808590e-01
  8.314935e+00    1.606315e+00
  8.337718e+00    1.597371e+00
  8.360501e+00    1.521781e+00
  8.383283e+00    9.386815e-01
  8.406066e+00    1.080831e+00
  8.428849e+00    1.133147e+00
  8.451632e+00    8.886826e-01
  8.474415e+00    6.654955e-01
  8.497197e+00    7.290437e-01
  8.519980e+00    8.161693e-01
  8.542763e+00    1.185201e+00
  8.565546e+00    1.095350e+00
  8.588329e+00    7.153390e-01
  8.611111e+00    3.660679e+00
  8.633894e+00    2.029207e+00
  8.656677e+00    7.183338e-01
  8.679460e+00    8.504262e-01
  8.702243e+00    9.289273e-01
  8.725025e+00    9.669269e-01
  8.747808e+00    8.125716e-01
  8.770591e+00    9.690432e-01
  8.793374e+00    1.089170e+00
  8.816156e+00    1.347373e+00
  8.838939e+00    9.094254e-01
  8.861722e+00    1.017834e+00
  8.884505e+00    1.485230e+00
  8.907288e+00    7.040894e-01
  8.930070e+00    7.950338e-01
  8.952853e+00    8.859645e-01
  8.975636e+00    1.081169e+00
  8.998419e+00    8.269084e-01
  9.021202e+00    6.620891e-01
  9.043984e+00    9.972068e-01
  9.066767e+00    8.681149e-01
  9.089550e+00    8.095515e-01
  9.112333e+00    8.535332e-01
  9.135116e+00    1.357026e+00
  9.157898e+00    1.525420e+00
  9.180681e+00    9.042820e-01
  9.203464e+00    1.392290e+00
  9.226247e+00    1.594751e+00
  9.249030e+00    1.736585e+00
  9.271812e+00    9.649562e-01
  9.294595e+00    9.611351e-01
  9.317378e+00    5.589943e-01
  9.340161e+00    5.004073e-01
  9.362944e+00    7.275169e-01
  9.385726e+00    1.343549e+00
  9.408509e+00    1.494789e+00
  9.431292e+00    1.412055e+00
  9.454075e+00    1.045006e+00
  9.476858e+00    6.911469e-02
  9.499640e+00    1.257977e+00
  9.522423e+00    1.065185e+00
  9.545206e+00    8.509685e-01
  9.567989e+00    1.750511e+00
  9.590772e+00    8.979813e-01
  9.613554e+00    3.184095e+00
  9.636337e+00    5.184288e+00
  9.659120e+00    2.146327e+00
  9.681903e+00    2.062233e+00
  9.704685e+00    7.955694e-01
  9.727468e+00    5.614474e-01
  9.750251e+00    7.904338e-01
  9.773034e+00    6.620283e-01
  9.795817e+00    6.407885e-01
  9.818599e+00    8.357865e-01
  9.841382e+00    9.022535e-01
  9.864165e+00    1.009442e+00
  9.886948e+00    1.334299e+00
  9.909731e+00    1.716775e+00
  9.932513e+00    2.195486e+00
  9.955296e+00    8.535355e-01
  9.978079e+00    9.883400e-01
  1.000086e+01    1.515017e+00
  1.002364e+01    1.167891e+00
  1.004643e+01    1.034494e+00
  1.006921e+01    1.574368e+00
  1.009199e+01    1.944732e+00
  1.011478e+01    1.329060e+00
  1.013756e+01    1.226493e+00
  1.016034e+01    8.229759e-01
  1.018312e+01    1.087709e+00
  1.020591e+01    8.542340e-01
  1.022869e+01    8.822698e-01
  1.025147e+01    1.099767e+00
  1.027426e+01    9.367194e-01
  1.029704e+01    1.882019e+00
  1.031982e+01    1.311519e+00
  1.034260e+01    6.282019e-01
  1.036539e+01    6.201054e-01
  1.038817e+01    5.041607e-01
  1.041095e+01    2.121285e+00
  1.043373e+01    1.078666e+00
  1.045652e+01    6.578025e-01
  1.047930e+01    9.648605e-01
  1.050208e+01    9.329405e-01
  1.052487e+01    9.904991e-01
  1.054765e+01    1.057375e+00
  1.057043e+01    1.162479e+00
  1.059321e+01    1.421005e+00
  1.061600e+01    1.729789e+00
  1.063878e+01    1.145147e+00
  1.066156e+01    1.109229e+00
  1.068435e+01    9.380299e-01
  1.070713e+01    1.191919e+00
  1.072991e+01    1.060476e+00
  1.075269e+01    1.050418e+00
  1.077548e+01    1.071847e+00
  1.079826e+01    1.331124e+00
  1.082104e+01    1.070065e+00
  1.084383e+01    1.175865e+00
  1.086661e+01    8.843292e-01
  1.088939e+01    7.617140e-01
  1.091217e+01    9.220676e-01
  1.093496e+01    1.047596e+00
  1.095774e+01    8.023858e-01
  1.098052e+01    8.307302e-01
  1.100330e+01    1.523030e+00
  1.102609e+01    1.061587e+00
  1.104887e+01    1.110452e+00
  1.107165e+01    1.216501e+00
  1.109444e+01    6.595367e-01
  1.111722e+01    1.157087e+00
  1.114000e+01    9.553539e-01
  1.116278e+01    9.169443e-01
  1.118557e+01    1.787317e+00
  1.120835e+01    2.370302e+00
  1.123113e+01    1.699015e+00
  1.125392e+01    1.416279e+00
  1.127670e+01    9.224076e-01
  1.129948e+01    1.270920e+00
  1.132226e+01    1.265039e+00
  1.134505e+01    9.752493e-01
  1.136783e+01    1.311968e+00
  1.139061e+01    1.100291e+00
  1.141340e+01    1.286473e+00
  1.143618e+01    2.246568e+00
  1.145896e+01    1.692170e+00
  1.148174e+01    6.650908e-01
  1.150453e+01    3.189245e-01
  1.152731e+01    7.729824e-01
  1.155009e+01    1.099397e+00
  1.157287e+01    1.033906e+00
  1.159566e+01    1.554771e+00
  1.161844e+01    2.713735e+00
  1.164122e+01    1.552793e+00
  1.166401e+01    9.236045e-01
  1.168679e+01    8.487825e-01
  1.170957e+01    1.560194e+00
  1.173235e+01    1.726614e+00
  1.175514e+01    1.621616e+00
  1.177792e+01    1.756135e+00
  1.180070e+01    1.310136e+00
  1.182349e+01    1.070535e+00
  1.184627e+01    1.315633e+00
  1.186905e+01    1.020175e+00
  1.189183e+01    1.232066e+00
  1.191462e+01    1.653199e+00
  1.193740e+01    1.658282e+00
  1.196018e+01    1.099662e+00
  1.198296e+01    1.235633e+00
  1.200575e+01    1.739545e+00
  1.202853e+01    1.882251e+00
  1.205131e+01    1.409873e+00
  1.207410e+01    1.378180e+00
  1.209688e+01    1.308256e+00
  1.211966e+01    1.168166e+00
  1.214244e+01    1.373325e+00
  1.216523e+01    1.491963e+00
  1.218801e+01    8.665786e-01
  1.221079e+01    7.477840e-01
  1.223358e+01    4.790733e+00
  1.225636e+01    4.638381e+00
  1.227914e+01    1.579095e+00
  1.230192e+01    1.919190e+00
  1.232471e+01    1.111406e+00
  1.234749e+01    1.059895e+00
  1.237027e+01    1.384013e+00
  1.239306e+01    1.362163e+00
  1.241584e+01    2.980939e+00
  1.243862e+01    1.346390e+00
  1.246140e+01    1.117813e+00
  1.248419e+01    1.148928e+00
  1.250697e+01    8.865051e-01
  1.252975e+01    1.375287e+00
  1.255253e+01    1.668702e+00
  1.257532e+01    1.612187e+00
  1.259810e+01    1.003359e+00
  1.262088e+01    8.293676e-01
  1.264367e+01    1.682078e+00
  1.266645e+01    4.224868e+00
  1.268923e+01    1.657639e+00
  1.271201e+01    1.278906e+00
  1.273480e+01    1.167898e+00
  1.275758e+01    1.285083e+00
  1.278036e+01    1.362559e+00
  1.280315e+01    1.253335e+00
  1.282593e+01    1.130850e+00
  1.284871e+01    1.344758e+00
  1.287149e+01    1.493900e+00
  1.289428e+01    1.245365e+00
  1.291706e+01    1.161356e+00
  1.293984e+01    1.532759e+00
  1.296263e+01    1.166128e+00
  1.298541e+01    9.788956e-01
  1.300819e+01    8.690865e-01
  1.303097e+01    1.637544e+00
  1.305376e+01    2.067978e+00
  1.307654e+01    2.158286e+00
  1.309932e+01    2.291582e+00
  1.312210e+01    1.943377e+00
  1.314489e+01    1.134250e+00
  1.316767e+01    1.078546e+00
  1.319045e+01    9.034079e-01
  1.321324e+01    8.383143e-01
  1.323602e+01    9.707941e-01
  1.325880e+01    9.492945e-01
  1.328158e+01    8.014327e-01
  1.330437e+01    1.201056e+00
  1.332715e+01    1.908302e+00
  1.334993e+01    1.651927e+00
  1.337272e+01    1.389480e+00
  1.339550e+01    1.375899e+00
  1.341828e+01    7.576706e-01
  1.344106e+01    1.073846e+00
  1.346385e+01    1.192623e+00
  1.348663e+01    1.342184e+00
  1.350941e+01    1.236854e+00
  1.353219e+01    1.444353e+00
  1.355498e+01    1.137632e+00
  1.357776e+01    9.442624e-01
  1.360054e+01    1.933330e+00
  1.362333e+01    1.125388e+00
  1.364611e+01    1.005732e+00
  1.366889e+01    1.036252e+00
  1.369167e+01    1.148795e+00
  1.371446e+01    1.866636e+00
  1.373724e+01    1.372192e+00
  1.376002e+01    1.073468e+00
  1.378281e+01    1.565423e+00
  1.380559e+01    8.628030e-01
  1.382837e+01    1.141419e+00
  1.385115e+01    1.798267e+00
  1.387394e+01    1.685264e+00
  1.389672e+01    1.286607e+00
  1.391950e+01    1.319807e+00
  1.394229e+01    1.943880e+00
  1.396507e+01    1.437016e+00
  1.398785e+01    1.522103e+00
  1.401063e+01    1.163069e+00
  1.403342e+01    1.377443e+00
  1.405620e+01    1.335104e+00
  1.407898e+01    1.047622e+00
  1.410176e+01    1.111020e+00
  1.412455e+01    1.604283e+00
  1.414733e+01    1.391095e+00
  1.417011e+01    1.173465e+00
  1.419290e+01    1.337214e+00
  1.421568e+01    1.303020e+00
  1.423846e+01    1.225029e+00
  1.426124e+01    9.669382e-01
  1.428403e+01    1.379347e+00
  1.430681e+01    1.644039e+00
  1.432959e+01    1.925474e+00
  1.435238e+01    1.398919e+00
  1.437516e+01    1.403904e+00
  1.439794e+01    1.007877e+00
  1.442072e+01    8.973353e-01
  1.444351e+01    1.258718e+00
  1.446629e+01    1.180550e+00
  1.448907e+01    9.481661e-01
  1.451186e+01    1.242864e+00
  1.453464e+01    1.440689e+00
  1.455742e+01    1.433412e+00
  1.458020e+01    1.693847e+00
  1.460299e+01    1.348238e+00
  1.462577e+01    1.490803e+00
  1.464855e+01    1.372282e+00
  1.467133e+01    1.216821e+00
  1.469412e+01    1.322053e+00
  1.471690e+01    1.469364e+00
  1.473968e+01    1.567147e+00
  1.476247e+01    1.345602e+00
  1.478525e+01    1.169708e+00
  1.480803e+01    9.482377e-01
  1.483081e+01    1.108408e+00
  1.485360e+01    1.091800e+00
  1.487638e+01    1.070966e+00
  1.489916e+01    1.102131e+00
  1.492195e+01    1.334439e+00
  1.494473e+01    1.487623e+00
  1.496751e+01    1.342327e+00
  1.499029e+01    1.267398e+00
  1.501308e+01    1.173899e+00
  1.503586e+01    7.508730e-01
  1.505864e+01    9.553111e-01
  1.508142e+01    9.376081e-01
  1.510421e+01    1.260740e+00
  1.512699e+01    1.118948e+00
  1.514977e+01    1.242176e+00
  1.517256e+01    9.462278e-01
  1.519534e+01    1.212081e+00
  1.521812e+01    1.147602e+00
  1.524090e+01    1.406341e+00
  1.526369e+01    1.059445e+00
  1.528647e+01    1.147084e+00
  1.530925e+01    1.368909e+00
  1.533204e+01    1.179305e+00
  1.535482e+01    1.218379e+00
  1.537760e+01    9.403991e-01
  1.540038e+01    1.433216e+00
  1.542317e+01    1.268143e+00
  1.544595e+01    9.511674e-01
  1.546873e+01    9.449818e-01
  1.549152e+01    1.390180e+00
  1.551430e+01    1.806580e+00
  1.553708e+01    1.514488e+00
  1.555986e+01    1.472878e+00
  1.558265e+01    1.329041e+00
  1.560543e+01    1.384632e+00
  1.562821e+01    1.400686e+00
  1.565099e+01    1.133169e+00
  1.567378e+01    1.237319e+00
  1.569656e+01    1.140760e+00
  1.571934e+01    1.296854e+00
  1.574213e+01    1.343138e+00
  1.576491e+01    1.312359e+00
  1.578769e+01    1.116034e+00
  1.581047e+01    9.355357e-01
  1.583326e+01    1.304771e+00
  1.585604e+01    1.241704e+00
  1.587882e+01    1.262552e+00
  1.590161e+01    1.267015e+00
  1.592439e+01    1.459026e+00
  1.594717e+01    1.443685e+00
  1.596995e+01    1.220899e+00
  1.599274e+01    1.207214e+00
  1.601552e+01    1.359879e+00
  1.603830e+01    9.697223e-01
  1.606109e+01    1.173511e+00
  1.608387e+01    1.394749e+00
  1.610665e+01    1.560014e+00
  1.612943e+01    1.336475e+00
  1.615222e+01    1.303571e+00
  1.617500e+01    1.293444e+00
  1.619778e+01    1.133153e+00
  1.622056e+01    1.056243e+00
  1.624335e+01    1.208729e+00
  1.626613e+01    1.228873e+00
  1.628891e+01    1.232553e+00
  1.631170e+01    1.254366e+00
  1.633448e+01    9.988536e-01
  1.635726e+01    1.030528e+00
  1.638004e+01    1.463220e+00
  1.640283e+01    1.210004e+00
  1.642561e+01    1.140347e+00
  1.644839e+01    1.001068e+00
  1.647118e+01    1.061276e+00
  1.649396e+01    1.217568e+00
  1.651674e+01    1.096853e+00
  1.653952e+01    1.285733e+00
  1.656231e+01    1.275573e+00
  1.658509e+01    1.153704e+00
  1.660787e+01    1.083066e+00
  1.663065e+01    1.480087e+00
  1.665344e+01    1.451015e+00
  1.667622e+01    1.198492e+00
  1.669900e+01    1.082085e+00
  1.672179e+01    1.231625e+00
  1.674457e+01    1.357403e+00
  1.676735e+01    1.133776e+00
  1.679013e+01    1.225364e+00
  1.681292e+01    1.305810e+00
  1.683570e+01    1.348752e+00
  1.685848e+01    1.142554e+00
  1.688127e+01    1.018926e+00
  1.690405e+01    1.069793e+00
  1.692683e+01    1.475116e+00
  1.694961e+01    1.470046e+00
  1.697240e+01    1.233000e+00
  1.699518e+01    1.341488e+00
  1.701796e+01    1.115359e+00
  1.704075e+01    9.315743e-01
  1.706353e+01    1.282124e+00
  1.708631e+01    1.111436e+00
  1.710909e+01    9.643748e-01
  1.713188e+01    1.118143e+00
  1.715466e+01    1.211148e+00
  1.717744e+01    1.319445e+00
  1.720022e+01    1.374443e+00
  1.722301e+01    1.306869e+00
  1.724579e+01    1.172982e+00
  1.726857e+01    1.277961e+00
  1.729136e+01    1.088382e+00
  1.731414e+01    1.282605e+00
  1.733692e+01    1.672344e+00
  1.735970e+01    1.310442e+00
  1.738249e+01    1.032877e+00
  1.740527e+01    1.330124e+00
  1.742805e+01    1.326640e+00
  1.745084e+01    1.048655e+00
  1.747362e+01    9.525092e-01
  1.749640e+01    1.141605e+00
  1.751918e+01    1.340687e+00
  1.754197e+01    1.147486e+00
  1.756475e+01    1.280633e+00
  1.758753e+01    1.345845e+00
  1.761032e+01    1.272605e+00
  1.763310e+01    1.356805e+00
  1.765588e+01    1.086874e+00
  1.767866e+01    1.184462e+00
  1.770145e+01    1.145182e+00
  1.772423e+01    1.317048e+00
  1.774701e+01    1.274260e+00
  1.776979e+01    1.104372e+00
  1.779258e+01    1.339146e+00
  1.781536e+01    1.087507e+00
  1.783814e+01    1.153150e+00
  1.786093e+01    1.333868e+00
  1.788371e+01    1.441655e+00
  1.790649e+01    1.226620e+00
  1.792927e+01    1.380487e+00
  1.795206e+01    1.104167e+00
  1.797484e+01    1.043908e+00
  1.799762e+01    1.083166e+00
  1.802041e+01    1.164762e+00
  1.804319e+01    1.079135e+00
  1.806597e+01    1.070605e+00
  1.808875e+01    1.015058e+00
  1.811154e+01    1.232669e+00
  1.813432e+01    1.157885e+00
  1.815710e+01    1.268665e+00
  1.817989e+01    1.108654e+00
  1.820267e+01    1.212359e+00
  1.822545e+01    1.272752e+00
  1.824823e+01    1.229311e+00
  1.827102e+01    1.379212e+00
  1.829380e+01    1.408635e+00
  1.831658e+01    8.933079e-01
  1.833936e+01    9.473091e-01
  1.836215e+01    1.177609e+00
  1.838493e+01    1.083689e+00
  1.840771e+01    1.243262e+00
  1.843050e+01    1.048612e+00
  1.845328e+01    1.023635e+00
  1.847606e+01    9.217688e-01
  1.849884e+01    1.136789e+00
  1.852163e+01    1.222573e+00
  1.854441e+01    1.181936e+00
  1.856719e+01    1.125450e+00
  1.858998e+01    1.156922e+00
  1.861276e+01    9.640864e-01
  1.863554e+01    1.068358e+00
  1.865832e+01    1.069306e+00
  1.868111e+01    1.273138e+00
  1.870389e+01    1.084053e+00
  1.872667e+01    1.223406e+00
  1.874945e+01    9.654587e-01
  1.877224e+01    8.053998e-01
  1.879502e+01    9.944921e-01
  1.881780e+01    1.167273e+00
  1.884059e+01    1.103451e+00
  1.886337e+01    1.094257e+00
  1.888615e+01    1.202727e+00
  1.890893e+01    1.321145e+00
  1.893172e+01    9.954848e-01
  1.895450e+01    8.130217e-01
  1.897728e+01    1.002894e+00
  1.900007e+01    1.272350e+00
  1.902285e+01    1.336035e+00
  1.904563e+01    1.127801e+00
  1.906841e+01    1.219604e+00
  1.909120e+01    1.345173e+00
  1.911398e+01    1.317987e+00
  1.913676e+01    1.074477e+00
  1.915955e+01    1.328370e+00
  1.918233e+01    1.188580e+00
  1.920511e+01    1.154658e+00
  1.922789e+01    1.106931e+00
  1.925068e+01    1.144466e+00
  1.927346e+01    1.044452e+00
  1.929624e+01    1.154334e+00
  1.931902e+01    1.039575e+00
  1.934181e+01    8.624322e-01
  1.936459e+01    1.016444e+00
  1.938737e+01    1.195802e+00
  1.941016e+01    1.037959e+00
  1.943294e+01    1.090847e+00
  1.945572e+01    9.186805e-01
  1.947850e+01    9.855930e-01
  1.950129e+01    9.046377e-01
  1.952407e+01    1.142581e+00
  1.954685e+01    1.139402e+00
  1.956964e+01    1.117754e+00
  1.959242e+01    1.314535e+00
  1.961520e+01    9.689990e-01
  1.963798e+01    1.126787e+00
  1.966077e+01    1.327220e+00
  1.968355e+01    1.224336e+00
  1.970633e+01    1.179288e+00
  1.972912e+01    1.304810e+00
  1.975190e+01    1.227213e+00
  1.977468e+01    1.062134e+00
  1.979746e+01    1.150160e+00
  1.982025e+01    1.107163e+00
  1.984303e+01    1.156184e+00
  1.986581e+01    1.162277e+00
  1.988859e+01    9.802185e-01
  1.991138e+01    9.825895e-01
  1.993416e+01    1.068736e+00
  1.995694e+01    1.191512e+00
  1.997973e+01    1.086139e+00
  2.000251e+01    9.600226e-01
  2.002529e+01    1.236396e+00
  2.004807e+01    1.181341e+00
  2.007086e+01    1.052688e+00
  2.009364e+01    1.125926e+00
  2.011642e+01    1.187052e+00
  2.013921e+01    1.089244e+00
  2.016199e+01    1.040587e+00
  2.018477e+01    1.027483e+00
  2.020755e+01    9.348309e-01
  2.023034e+01    9.905984e-01
  2.025312e+01    1.007793e+00
  2.027590e+01    1.203167e+00
  2.029868e+01    1.203882e+00
  2.032147e+01    1.124898e+00
  2.034425e+01    1.078772e+00
  2.036703e+01    1.013954e+00
  2.038982e+01    9.685398e-01
  2.041260e+01    1.084493e+00
  2.043538e+01    1.012764e+00
  2.045816e+01    1.105680e+00
  2.048095e+01    1.083784e+00
  2.050373e+01    9.701398e-01
  2.052651e+01    1.146971e+00
  2.054930e+01    1.104554e+00
  2.057208e+01    9.987897e-01
  2.059486e+01    1.041842e+00
  2.061764e+01    1.006692e+00
  2.064043e+01    1.328380e+00
  2.066321e+01    1.344932e+00
  2.068599e+01    1.065036e+00
  2.070878e+01    1.045389e+00
  2.073156e+01    1.117497e+00
  2.075434e+01    1.191492e+00
  2.077712e+01    1.277226e+00
  2.079991e+01    1.114608e+00
  2.082269e+01    1.205095e+00
  2.084547e+01    1.079552e+00
  2.086825e+01    1.097901e+00
  2.089104e+01    1.129219e+00
  2.091382e+01    1.326151e+00
  2.093660e+01    1.077586e+00
  2.095939e+01    1.167181e+00
  2.098217e+01    1.159530e+00
  2.100495e+01    9.934726e-01
  2.102773e+01    1.144717e+00
  2.105052e+01    1.179079e+00
  2.107330e+01    1.088491e+00
  2.109608e+01    9.706094e-01
  2.111887e+01    1.050597e+00
  2.114165e+01    9.690631e-01
  2.116443e+01    7.872764e-01
  2.118721e+01    9.300778e-01
  2.121000e+01    1.042888e+00
  2.123278e+01    1.069041e+00
  2.125556e+01    1.090325e+00
  2.127835e+01    1.212568e+00
  2.130113e+01    1.200177e+00
  2.132391e+01    1.097111e+00
  2.134669e+01    1.111363e+00
  2.136948e+01    1.071275e+00
  2.139226e+01    1.256975e+00
  2.141504e+01    1.180405e+00
  2.143782e+01    8.469709e-01
  2.146061e+01    9.560085e-01
  2.148339e+01    1.115032e+00
  2.150617e+01    9.698188e-01
  2.152896e+01    1.034371e+00
  2.155174e+01    1.033098e+00
  2.157452e+01    1.019963e+00
  2.159730e+01    1.051432e+00
  2.162009e+01    1.060928e+00
  2.164287e+01    1.133880e+00
  2.166565e+01    1.115859e+00
  2.168844e+01    1.073978e+00
  2.171122e+01    1.105139e+00
  2.173400e+01    9.622477e-01
  2.175678e+01    9.749948e-01
  2.177957e+01    1.080935e+00
  2.180235e+01    1.041727e+00
  2.182513e+01    1.129205e+00
  2.184791e+01    1.004963e+00
  2.187070e+01    1.068364e+00
  2.189348e+01    1.101355e+00
  2.191626e+01    9.576774e-01
  2.193905e+01    1.109747e+00
  2.196183e+01    1.126198e+00
  2.198461e+01    1.000115e+00
  2.200739e+01    9.131746e-01
  2.203018e+01    9.893111e-01
  2.205296e+01    9.718595e-01
  2.207574e+01    1.173369e+00
  2.209853e+01    1.021714e+00
  2.212131e+01    1.114456e+00
  2.214409e+01    1.076627e+00
  2.216687e+01    1.020540e+00
  2.218966e+01    9.955879e-01
  2.221244e+01    9.621193e-01
  2.223522e+01    9.215422e-01
  2.225801e+01    1.137758e+00
  2.228079e+01    1.163744e+00
  2.230357e+01    1.058991e+00
  2.232635e+01    1.016371e+00
  2.234914e+01    1.015872e+00
  2.237192e+01    9.403871e-01
  2.239470e+01    9.810492e-01
  2.241748e+01    9.685858e-01
  2.244027e+01    1.013108e+00
  2.246305e+01    1.057053e+00
  2.248583e+01    1.114699e+00
  2.250862e+01    1.063311e+00
  2.253140e+01    1.060496e+00
  2.255418e+01    9.300319e-01
  2.257696e+01    1.056239e+00
  2.259975e+01    1.034928e+00
  2.262253e+01    1.077539e+00
  2.264531e+01    9.461812e-01
  2.266810e+01    9.668599e-01
  2.269088e+01    9.402239e-01
  2.271366e+01    1.079833e+00
  2.273644e+01    1.046018e+00
  2.275923e+01    1.098448e+00
  2.278201e+01    1.113509e+00
  2.280479e+01    1.055044e+00
  2.282758e+01    9.206585e-01
  2.285036e+01    1.086249e+00
  2.287314e+01    1.085871e+00
  2.289592e+01    1.121232e+00
  2.291871e+01    1.094061e+00
  2.294149e+01    1.015077e+00
  2.296427e+01    9.956886e-01
  2.298705e+01    1.101756e+00
  2.300984e+01    9.686033e-01
  2.303262e+01    1.013300e+00
  2.305540e+01    1.104307e+00
  2.307819e+01    9.596269e-01
  2.310097e+01    9.733109e-01
  2.312375e+01    1.019988e+00
  2.314653e+01    9.218253e-01
  2.316932e+01    9.506797e-01
  2.319210e+01    1.106508e+00
  2.321488e+01    9.723920e-01
  2.323767e+01    1.128868e+00
  2.326045e+01    1.000514e+00
  2.328323e+01    1.058716e+00
  2.330601e+01    1.088477e+00
  2.332880e+01    1.058384e+00
  2.335158e+01    1.011145e+00
  2.337436e+01    9.524968e-01
  2.339714e+01    9.270567e-01
  2.341993e+01    1.065149e+00
  2.344271e+01    1.125432e+00
  2.346549e+01    1.136148e+00
  2.348828e+01    1.102938e+00
  2.351106e+01    1.051369e+00
  2.353384e+01    1.097680e+00
  2.355662e+01    9.926119e-01
  2.357941e+01    9.812581e-01
  2.360219e+01    1.025660e+00
  2.362497e+01    1.092928e+00
  2.364776e+01    1.103953e+00
  2.367054e+01    1.036438e+00
  2.369332e+01    1.044041e+00
  2.371610e+01    9.944180e-01
  2.373889e+01    9.916714e-01
  2.376167e+01    1.058053e+00
  2.378445e+01    1.061282e+00
  2.380724e+01    1.113627e+00
  2.383002e+01    1.044518e+00
  2.385280e+01    1.023539e+00
  2.387558e+01    1.054239e+00
  2.389837e+01    1.066882e+00
  2.392115e+01    1.093130e+00
  2.394393e+01    1.119238e+00
  2.396671e+01    1.126563e+00
  2.398950e+01    9.880401e-01
  2.401228e+01    1.073213e+00
  2.403506e+01    1.032729e+00
  2.405785e+01    9.973223e-01
  2.408063e+01    1.058749e+00
  2.410341e+01    9.605532e-01
  2.412619e+01    1.066915e+00
  2.414898e+01    1.137589e+00
  2.417176e+01    1.033193e+00
  2.419454e+01    1.034712e+00
  2.421733e+01    9.939682e-01
  2.424011e+01    1.046114e+00
  2.426289e+01    1.031404e+00
  2.428567e+01    1.123102e+00
  2.430846e+01    1.083063e+00
  2.433124e+01    1.014565e+00
  2.435402e+01    1.070608e+00
  2.437681e+01    1.087368e+00
  2.439959e+01    1.033290e+00
  2.442237e+01    1.078385e+00
  2.444515e+01    1.029033e+00
  2.446794e+01    1.045124e+00
  2.449072e+01    9.868937e-01
  2.451350e+01    1.073046e+00
  2.453628e+01    1.021314e+00
  2.455907e+01    1.039751e+00
  2.458185e+01    9.909878e-01
  2.460463e+01    1.070352e+00
  2.462742e+01    1.022928e+00
  2.465020e+01    1.061580e+00
  2.467298e+01    9.996362e-01
  2.469576e+01    1.039234e+00
  2.471855e+01    1.031713e+00
  2.474133e+01    9.570099e-01
  2.476411e+01    1.045128e+00
  2.478690e+01    1.099628e+00
  2.480968e+01    1.076414e+00
  2.483246e+01    1.086804e+00
  2.485524e+01    9.919153e-01
  2.487803e+01    9.945853e-01
  2.490081e+01    1.120525e+00
  2.492359e+01    1.144794e+00
  2.494637e+01    1.156527e+00
  2.496916e+01    1.073655e+00
  2.499194e+01    1.057281e+00
  2.501472e+01    9.499292e-01
  2.503751e+01    1.009039e+00
  2.506029e+01    9.717482e-01
  2.508307e+01    1.061279e+00
  2.510585e+01    1.101198e+00
  2.512864e+01    1.001351e+00
  2.515142e+01    1.060789e+00
  2.517420e+01    1.058524e+00
  2.519699e+01    1.005226e+00
  2.521977e+01    1.029758e+00
  2.524255e+01    9.844398e-01
  2.526533e+01    1.002087e+00
  2.528812e+01    1.065999e+00
  2.531090e+01    1.104233e+00
  2.533368e+01    1.086804e+00
  2.535647e+01    1.053282e+00
  2.537925e+01    9.926166e-01
  2.540203e+01    1.114067e+00
  2.542481e+01    1.089303e+00
  2.544760e+01    1.048955e+00
  2.547038e+01    1.085969e+00
  2.549316e+01    1.153830e+00
  2.551594e+01    1.085511e+00
  2.553873e+01    1.085173e+00
  2.556151e+01    1.052587e+00
  2.558429e+01    1.019138e+00
  2.560708e+01    1.077509e+00
  2.562986e+01    9.818133e-01
  2.565264e+01    1.008412e+00
  2.567542e+01    1.056116e+00
  2.569821e+01    1.067739e+00
  2.572099e+01    1.066188e+00
  2.574377e+01    1.086214e+00
  2.576656e+01    1.060773e+00
  2.578934e+01    1.016249e+00
  2.581212e+01    1.033506e+00
  2.583490e+01    1.041503e+00
  2.585769e+01    1.076150e+00
  2.588047e+01    1.070805e+00
  2.590325e+01    1.071341e+00
  2.592604e+01    1.000112e+00
  2.594882e+01    1.042618e+00
  2.597160e+01    1.077886e+00
  2.599438e+01    1.084969e+00
  2.601717e+01    1.129743e+00
  2.603995e+01    1.001914e+00
  2.606273e+01    9.793993e-01
  2.608551e+01    9.820051e-01
  2.610830e+01    1.084233e+00
  2.613108e+01    1.029983e+00
  2.615386e+01    1.068602e+00
  2.617665e+01    1.082654e+00
  2.619943e+01    1.029624e+00
  2.622221e+01    1.021850e+00
  2.624499e+01    1.070838e+00
  2.626778e+01    1.032170e+00
  2.629056e+01    1.083977e+00
  2.631334e+01    1.123496e+00
  2.633613e+01    1.122302e+00
  2.635891e+01    1.046834e+00
  2.638169e+01    1.039817e+00
  2.640447e+01    1.097479e+00
  2.642726e+01    1.110187e+00
  2.645004e+01    1.026765e+00
  2.647282e+01    1.088849e+00
  2.649560e+01    1.126876e+00
  2.651839e+01    1.134273e+00
  2.654117e+01    1.030390e+00
  2.656395e+01    1.032908e+00
  2.658674e+01    1.076730e+00
  2.660952e+01    1.040354e+00
  2.663230e+01    1.061290e+00
  2.665508e+01    1.173404e+00
  2.667787e+01    1.021201e+00
  2.670065e+01    1.028962e+00
  2.672343e+01    1.055888e+00
  2.674622e+01    1.132474e+00
  2.676900e+01    1.091962e+00
  2.679178e+01    1.050348e+00
  2.681456e+01    1.131308e+00
  2.683735e+01    1.037591e+00
  2.686013e+01    1.052386e+00
  2.688291e+01    1.062258e+00
  2.690570e+01    1.075845e+00
  2.692848e+01    1.089875e+00
  2.695126e+01    1.083603e+00
  2.697404e+01    1.049652e+00
  2.699683e+01    1.075101e+00
  2.701961e+01    1.046463e+00
  2.704239e+01    1.104277e+00
  2.706517e+01    1.082986e+00
  2.708796e+01    1.095804e+00
  2.711074e+01    1.134574e+00
  2.713352e+01    1.134579e+00
  2.715631e+01    1.013285e+00
  2.717909e+01    1.074227e+00
  2.720187e+01    1.148095e+00
  2.722465e+01    1.147917e+00
  2.724744e+01    1.104415e+00
  2.727022e+01    1.097464e+00
  2.729300e+01    1.178743e+00
  2.731579e+01    1.141699e+00
  2.733857e+01    1.163319e+00
  2.736135e+01    1.102153e+00
  2.738413e+01    1.156340e+00
  2.740692e+01    1.188476e+00
  2.742970e+01    1.232810e+00
  2.745248e+01    1.223354e+00
  2.747527e+01    1.197203e+00
  2.749805e+01    1.250291e+00
  2.752083e+01    1.214741e+00
  2.754361e+01    1.319924e+00
  2.756640e+01    1.292354e+00
  2.758918e+01    1.238206e+00
  2.761196e+01    1.251634e+00
  2.763474e+01    1.295823e+00
  2.765753e+01    1.352816e+00
  2.768031e+01    1.335864e+00
  2.770309e+01    1.429348e+00
  2.772588e+01    1.468329e+00
  2.774866e+01    1.390220e+00
  2.777144e+01    1.374390e+00
  2.779422e+01    1.425822e+00
  2.781701e+01    1.527604e+00
  2.783979e+01    1.422230e+00
  2.786257e+01    1.491724e+00
  2.788536e+01    1.563826e+00
  2.790814e+01    1.542662e+00
  2.793092e+01    1.559010e+00
  2.795370e+01    1.579342e+00
  2.797649e+01    1.599431e+00
  2.799927e+01    1.539160e+00
  2.802205e+01    1.519672e+00
  2.804483e+01    1.565607e+00
  2.806762e+01    1.606591e+00
  2.809040e+01    1.489344e+00
  2.811318e+01    1.508589e+00
  2.813597e+01    1.543768e+00
  2.815875e+01    1.533339e+00
  2.818153e+01    1.515623e+00
  2.820431e+01    1.575773e+00
  2.822710e+01    1.719919e+00
  2.824988e+01    1.674498e+00
  2.827266e+01    1.553593e+00
  2.829545e+01    1.587587e+00
  2.831823e+01    1.634327e+00
  2.834101e+01    1.644803e+00
  2.836379e+01    1.678966e+00
  2.838658e+01    1.640784e+00
  2.840936e+01    1.637638e+00
  2.843214e+01    1.614719e+00
  2.845493e+01    1.600336e+00
  2.847771e+01    1.615967e+00
  2.850049e+01    1.584373e+00
  2.852327e+01    1.635520e+00
  2.854606e+01    1.658886e+00
  2.856884e+01    1.668448e+00
  2.859162e+01    1.614340e+00
  2.861440e+01    1.558540e+00
  2.863719e+01    1.628435e+00
  2.865997e+01    1.543713e+00
  2.868275e+01    1.632581e+00
  2.870554e+01    1.551286e+00
  2.872832e+01    1.567082e+00
  2.875110e+01    1.547535e+00
  2.877388e+01    1.581435e+00
  2.879667e+01    1.610426e+00
  2.881945e+01    1.618820e+00
  2.884223e+01    1.462534e+00
  2.886502e+01    1.578025e+00
  2.888780e+01    1.502987e+00
  2.891058e+01    1.515002e+00
  2.893336e+01    1.548054e+00
  2.895615e+01    1.586675e+00
  2.897893e+01    1.607185e+00
  2.900171e+01    1.523996e+00
  2.902450e+01    1.438182e+00
  2.904728e+01    1.446582e+00
  2.907006e+01    1.478126e+00
  2.909284e+01    1.621412e+00
  2.911563e+01    1.495276e+00
  2.913841e+01    1.532825e+00
  2.916119e+01    1.470866e+00
  2.918397e+01    1.471974e+00
  2.920676e+01    1.481527e+00
  2.922954e+01    1.503658e+00
  2.925232e+01    1.526505e+00
  2.927511e+01    1.503307e+00
  2.929789e+01    1.383226e+00
  2.932067e+01    1.439570e+00
  2.934345e+01    1.467381e+00
  2.936624e+01    1.445795e+00
  2.938902e+01    1.539447e+00
  2.941180e+01    1.483718e+00
  2.943459e+01    1.416893e+00
  2.945737e+01    1.378309e+00
  2.948015e+01    1.347100e+00
  2.950293e+01    1.407665e+00
  2.952572e+01    1.433039e+00
  2.954850e+01    1.416024e+00
  2.957128e+01    1.387252e+00
  2.959407e+01    1.357144e+00
  2.961685e+01    1.363761e+00
  2.963963e+01    1.373010e+00
  2.966241e+01    1.327528e+00
  2.968520e+01    1.326314e+00
  2.970798e+01    1.408716e+00
  2.973076e+01    1.283637e+00
  2.975354e+01    1.244727e+00
  2.977633e+01    1.271065e+00
  2.979911e+01    1.356241e+00
  2.982189e+01    1.364385e+00
  2.984468e+01    1.351811e+00
  2.986746e+01    1.218874e+00
  2.989024e+01    1.264228e+00
  2.991302e+01    1.206433e+00
  2.993581e+01    1.316926e+00
  2.995859e+01    1.319369e+00
  2.998137e+01    1.208554e+00
  3.000416e+01    1.244147e+00
  3.002694e+01    1.211826e+00
  3.004972e+01    1.192658e+00
  3.007250e+01    1.143276e+00
  3.009529e+01    1.176625e+00
  3.011807e+01    1.156435e+00
  3.014085e+01    1.259825e+00
  3.016363e+01    1.125139e+00
  3.018642e+01    1.126370e+00
  3.020920e+01    1.064266e+00
  3.023198e+01    1.119294e+00
  3.025477e+01    1.129250e+00
  3.027755e+01    1.083886e+00
  3.030033e+01    1.084861e+00
  3.032311e+01    1.157779e+00
  3.034590e+01    1.179631e+00
  3.036868e+01    1.123480e+00
  3.039146e+01    1.121968e+00
  3.041425e+01    1.084481e+00
  3.043703e+01    1.075860e+00
  3.045981e+01    1.154366e+00
  3.048259e+01    1.181909e+00
  3.050538e+01    1.103905e+00
  3.052816e+01    1.072070e+00
  3.055094e+01    1.033178e+00
  3.057373e+01    1.080568e+00
  3.059651e+01    1.081205e+00
  3.061929e+01    1.058586e+00
  3.064207e+01    1.082182e+00
  3.066486e+01    1.124266e+00
  3.068764e+01    1.122669e+00
  3.071042e+01    1.086522e+00
  3.073320e+01    1.032921e+00
  3.075599e+01    1.017312e+00
  3.077877e+01    9.717059e-01
  3.080155e+01    1.079381e+00
  3.082434e+01    1.029665e+00
  3.084712e+01    1.013749e+00
  3.086990e+01    1.051922e+00
  3.089268e+01    9.891357e-01
  3.091547e+01    9.997834e-01
  3.093825e+01    1.034101e+00
  3.096103e+01    1.067222e+00
  3.098382e+01    1.020937e+00
  3.100660e+01    1.025583e+00
  3.102938e+01    1.006851e+00
  3.105216e+01    1.046142e+00
  3.107495e+01    9.991983e-01
  3.109773e+01    1.092726e+00
  3.112051e+01    1.027187e+00
  3.114330e+01    1.020997e+00
  3.116608e+01    1.012989e+00
  3.118886e+01    1.042277e+00
  3.121164e+01    9.878395e-01
  3.123443e+01    9.543020e-01
  3.125721e+01    1.047515e+00
  3.127999e+01    1.274748e+00
  3.130277e+01    1.083148e+00
  3.132556e+01    1.081382e+00
  3.134834e+01    1.071298e+00
  3.137112e+01    1.113305e+00
  3.139391e+01    1.054150e+00
  3.141669e+01    1.082232e+00
  3.143947e+01    1.045077e+00
  3.146225e+01    1.046786e+00
  3.148504e+01    1.074491e+00
  3.150782e+01    1.118573e+00
  3.153060e+01    1.095984e+00
  3.155339e+01    1.067871e+00
  3.157617e+01    1.026481e+00
  3.159895e+01    9.932692e-01
  3.162173e+01    9.690623e-01
  3.164452e+01    1.080776e+00
  3.166730e+01    1.078537e+00
  3.169008e+01    1.038039e+00
  3.171286e+01    1.117924e+00
  3.173565e+01    1.037025e+00
  3.175843e+01    1.098501e+00
  3.178121e+01    1.029023e+00
  3.180400e+01    1.108681e+00
  3.182678e+01    1.013416e+00
  3.184956e+01    1.138712e+00
  3.187234e+01    1.122550e+00
  3.189513e+01    9.279961e-01
  3.191791e+01    9.750323e-01
  3.194069e+01    1.000745e+00
  3.196348e+01    1.172035e+00
  3.198626e+01    1.064941e+00
  3.200904e+01    1.061805e+00
  3.203182e+01    9.811514e-01
  3.205461e+01    1.033238e+00
  3.207739e+01    1.037551e+00
  3.210017e+01    1.153800e+00
  3.212296e+01    1.043781e+00
  3.214574e+01    9.985296e-01
  3.216852e+01    1.006444e+00
  3.219130e+01    1.018322e+00
  3.221409e+01    1.090244e+00
  3.223687e+01    1.053518e+00
  3.225965e+01    1.138405e+00
  3.228243e+01    1.133221e+00
  3.230522e+01    1.004105e+00
  3.232800e+01    9.564596e-01
  3.235078e+01    1.067893e+00
  3.237357e+01    1.046837e+00
  3.239635e+01    1.041707e+00
  3.241913e+01    1.020214e+00
  3.244191e+01    1.034423e+00
  3.246470e+01    1.108525e+00
  3.248748e+01    1.082528e+00
  3.251026e+01    9.216269e-01
  3.253305e+01    1.055276e+00
  3.255583e+01    9.977809e-01
  3.257861e+01    1.083036e+00
  3.260139e+01    1.094913e+00
  3.262418e+01    1.067686e+00
  3.264696e+01    9.196864e-01
  3.266974e+01    9.973763e-01
  3.269253e+01    9.948115e-01
  3.271531e+01    9.099540e-01
  3.273809e+01    9.459094e-01
  3.276087e+01    9.986194e-01
  3.278366e+01    1.000084e+00
  3.280644e+01    9.774657e-01
  3.282922e+01    1.183266e+00
  3.285200e+01    9.193206e-01
  3.287479e+01    1.094274e+00
  3.289757e+01    1.082153e+00
  3.292035e+01    1.048270e+00
  3.294314e+01    9.027206e-01
  3.296592e+01    9.550027e-01
  3.298870e+01    1.020357e+00
  3.301148e+01    1.144476e+00
  3.303427e+01    1.013054e+00
  3.305705e+01    9.432633e-01
  3.307983e+01    1.149995e+00
  3.310262e+01    1.010214e+00
  3.312540e+01    1.069661e+00
  3.314818e+01    8.643606e-01
  3.317096e+01    1.092570e+00
  3.319375e+01    1.288202e+00
  3.321653e+01    8.946057e-01
  3.323931e+01    1.090973e+00
  3.326209e+01    9.756131e-01
  3.328488e+01    9.198738e-01
  3.330766e+01    1.421438e+00
  3.333044e+01    9.647877e-01
  3.335323e+01    8.985656e-01
  3.337601e+01    7.542488e-01
  3.339879e+01    1.014561e+00
  3.342157e+01    5.848235e-01
  3.344436e+01    4.531692e-01
  3.346714e+01    1.160889e-01
  3.348992e+01    0.000000e+00
  3.351271e+01    0.000000e+00
  3.353549e+01    0.000000e+00
  3.355827e+01    0.000000e+00
  3.358105e+01    0.000000e+00
  3.360384e+01    0.000000e+00
  3.362662e+01    0.000000e+00
  3.364940e+01    0.000000e+00
  3.367219e+01    0.000000e+00
  3.369497e+01    0.000000e+00
  3.371775e+01    0.000000e+00
