# == pyFAI calibration ==
# Distance Sample to Detector: 0.21311058206280517 m
# PONI: 2.037e-01, 1.993e-01 m
# Rotations: -0.005459 0.000134 0.000000 rad
# 
# == Fit2d calibration ==
# Distance Sample-beamCenter: 213.114 mm
# Center: x=1002.134, y=1018.730 pix
# Tilt: 0.313 deg  TiltPlanRot: 1.411 deg
# 
# Detector Perkin detector	 PixelSize= 2.000e-04, 2.000e-04 m
#    Detector has a mask: False 
#    Detector has a dark current: False 
#    detector has a flat field: False 
# 
# Wavelength: 1.675e-11 m
# Mask applied: provided
# Dark current applied: False
# Flat field applied: False
# Polarization factor: None
# Normalization factor: 1.0
# --> data/chi_bkgsub_true/C_Tatania5-26.6-average.chi
#        q_A^-1             I 
  2.199784e-02    7.379113e-01
  4.478064e-02    4.928118e-01
  6.756343e-02    1.158767e+00
  9.034623e-02    1.326022e+00
  1.131290e-01    1.380182e+00
  1.359118e-01    1.159621e+00
  1.586946e-01    1.667319e+00
  1.814774e-01    1.674883e+00
  2.042602e-01    1.723460e+00
  2.270430e-01    2.433436e+00
  2.498258e-01    4.571958e+00
  2.726086e-01    1.162086e+01
  2.953914e-01    3.784550e+01
  3.181742e-01    8.454915e+01
  3.409570e-01    1.011617e+02
  3.637398e-01    6.121093e+01
  3.865226e-01    4.035665e+01
  4.093054e-01    4.392359e+01
  4.320881e-01    3.553669e+01
  4.548709e-01    2.179607e+01
  4.776537e-01    1.234114e+01
  5.004365e-01    9.579424e+00
  5.232193e-01    9.268895e+00
  5.460021e-01    9.794175e+00
  5.687849e-01    1.181638e+01
  5.915677e-01    1.262926e+01
  6.143505e-01    1.131069e+01
  6.371333e-01    9.862475e+00
  6.599161e-01    9.602338e+00
  6.826989e-01    8.856434e+00
  7.054817e-01    8.214271e+00
  7.282645e-01    7.661013e+00
  7.510473e-01    7.563987e+00
  7.738301e-01    6.870543e+00
  7.966129e-01    6.571607e+00
  8.193956e-01    6.720757e+00
  8.421784e-01    6.265274e+00
  8.649612e-01    5.862951e+00
  8.877440e-01    6.139864e+00
  9.105268e-01    6.057654e+00
  9.333096e-01    5.318018e+00
  9.560924e-01    4.890410e+00
  9.788752e-01    4.846464e+00
  1.001658e+00    4.799600e+00
  1.024441e+00    4.510893e+00
  1.047224e+00    4.530334e+00
  1.070006e+00    3.989664e+00
  1.092789e+00    4.103989e+00
  1.115572e+00    4.241095e+00
  1.138355e+00    4.372302e+00
  1.161138e+00    4.318992e+00
  1.183920e+00    3.728009e+00
  1.206703e+00    3.168518e+00
  1.229486e+00    2.985601e+00
  1.252269e+00    2.862055e+00
  1.275052e+00    3.054519e+00
  1.297834e+00    3.062257e+00
  1.320617e+00    3.579751e+00
  1.343400e+00    3.038090e+00
  1.366183e+00    2.944910e+00
  1.388966e+00    2.987153e+00
  1.411748e+00    3.150834e+00
  1.434531e+00    3.361495e+00
  1.457314e+00    3.165603e+00
  1.480097e+00    2.071090e+00
  1.502879e+00    1.704891e+00
  1.525662e+00    1.390797e+00
  1.548445e+00    9.369389e-01
  1.571228e+00    6.206678e-01
  1.594011e+00    6.425563e-01
  1.616793e+00    4.601458e-01
  1.639576e+00    7.543030e-01
  1.662359e+00    1.205672e+00
  1.685142e+00    4.611736e+00
  1.707925e+00    1.323020e+01
  1.730707e+00    2.516323e+01
  1.753490e+00    4.320307e+01
  1.776273e+00    5.851398e+01
  1.799056e+00    5.740236e+01
  1.821839e+00    4.138822e+01
  1.844621e+00    2.391977e+01
  1.867404e+00    1.258936e+01
  1.890187e+00    4.181206e+00
  1.912970e+00    3.566730e-01
  1.935753e+00    2.998772e-01
  1.958535e+00    1.055547e+00
  1.981318e+00    7.071234e-01
  2.004101e+00    2.976349e-01
  2.026884e+00    6.047735e-01
  2.049667e+00    7.806405e-01
  2.072449e+00    9.998170e-01
  2.095232e+00    4.951613e-01
  2.118015e+00    4.692903e-01
  2.140798e+00    0.000000e+00
  2.163581e+00    4.610138e-01
  2.186363e+00    4.639074e-01
  2.209146e+00    4.689178e-01
  2.231929e+00    3.412181e+00
  2.254712e+00    2.280681e+00
  2.277494e+00    7.193785e-01
  2.300277e+00    7.158966e-01
  2.323060e+00    8.421291e-01
  2.345843e+00    1.269775e+00
  2.368626e+00    1.279183e+00
  2.391408e+00    1.305148e+00
  2.414191e+00    2.166748e+00
  2.436974e+00    2.166748e+00
  2.459757e+00    1.819700e+00
  2.482540e+00    1.940158e+00
  2.505322e+00    1.662023e+00
  2.528105e+00    1.119064e+00
  2.550888e+00    1.119064e+00
  2.573671e+00    3.882811e+00
  2.596454e+00    2.911483e+00
  2.619236e+00    2.395371e+00
  2.642019e+00    2.603221e+00
  2.664802e+00    2.555224e+00
  2.687585e+00    2.090248e+00
  2.710368e+00    1.672831e+00
  2.733150e+00    7.625964e-01
  2.755933e+00    5.706397e-01
  2.778716e+00    8.768268e-01
  2.801499e+00    9.849871e-01
  2.824282e+00    7.871882e-01
  2.847064e+00    5.479557e-01
  2.869847e+00    6.047272e-01
  2.892630e+00    7.243590e-01
  2.915413e+00    1.533114e+00
  2.938196e+00    1.108289e+00
  2.960978e+00    1.273161e+00
  2.983761e+00    1.386382e+00
  3.006544e+00    4.001053e+00
  3.029327e+00    2.467339e+00
  3.052110e+00    1.601835e+00
  3.074892e+00    5.287601e-01
  3.097675e+00    3.490691e-01
  3.120458e+00    0.000000e+00
  3.143241e+00    1.645809e+00
  3.166023e+00    1.376666e+00
  3.188806e+00    7.958868e-01
  3.211589e+00    7.557606e-01
  3.234372e+00    2.245274e+00
  3.257155e+00    4.070019e+00
  3.279937e+00    6.384878e+00
  3.302720e+00    7.979839e+00
  3.325503e+00    7.752888e+00
  3.348286e+00    5.798403e+00
  3.371069e+00    3.865889e+00
  3.393851e+00    2.641973e+00
  3.416634e+00    5.912920e-01
  3.439417e+00    6.677241e-01
  3.462200e+00    1.140260e+00
  3.484983e+00    9.296668e-01
  3.507765e+00    4.249545e-01
  3.530548e+00    1.068680e+00
  3.553331e+00    5.859908e-01
  3.576114e+00    5.232239e-02
  3.598897e+00    1.852185e+00
  3.621679e+00    2.007206e+00
  3.644462e+00    3.563374e+00
  3.667245e+00    6.275455e+00
  3.690028e+00    8.944216e+00
  3.712811e+00    1.139110e+01
  3.735593e+00    1.164013e+01
  3.758376e+00    9.849845e+00
  3.781159e+00    7.139275e+00
  3.803942e+00    4.795316e+00
  3.826725e+00    3.723827e+00
  3.849507e+00    5.865000e+00
  3.872290e+00    8.814947e+00
  3.895073e+00    1.818995e+00
  3.917856e+00    1.799169e+00
  3.940638e+00    1.600541e+00
  3.963421e+00    1.379842e+00
  3.986204e+00    6.470042e-01
  4.008987e+00    8.079911e-01
  4.031770e+00    8.547267e-01
  4.054552e+00    9.336958e-01
  4.077335e+00    1.140914e+00
  4.100118e+00    1.624344e+00
  4.122901e+00    1.092453e+00
  4.145684e+00    2.376285e+00
  4.168466e+00    3.200309e+00
  4.191249e+00    3.052592e-01
  4.214032e+00    9.442905e-01
  4.236815e+00    1.958650e+00
  4.259598e+00    2.154611e+00
  4.282380e+00    2.411728e+00
  4.305163e+00    7.828640e+00
  4.327946e+00    1.025854e+01
  4.350729e+00    1.104462e+00
  4.373512e+00    1.079656e+00
  4.396294e+00    1.708131e+00
  4.419077e+00    1.558834e+00
  4.441860e+00    8.444824e-01
  4.464643e+00    3.062133e-01
  4.487426e+00    4.918943e-01
  4.510208e+00    1.848801e+00
  4.532991e+00    1.405000e+00
  4.555774e+00    1.276759e+00
  4.578557e+00    5.460647e-01
  4.601340e+00    5.014175e-01
  4.624122e+00    6.191086e-01
  4.646905e+00    1.000084e+00
  4.669688e+00    4.780380e-01
  4.692471e+00    5.494364e-01
  4.715253e+00    1.927870e+00
  4.738036e+00    1.255201e+00
  4.760819e+00    4.984911e-01
  4.783602e+00    5.464706e-01
  4.806385e+00    6.782615e-01
  4.829167e+00    9.605253e-01
  4.851950e+00    2.184955e+00
  4.874733e+00    1.917293e+00
  4.897516e+00    1.826252e+00
  4.920299e+00    2.316022e+00
  4.943081e+00    1.747034e+00
  4.965864e+00    1.214364e+00
  4.988647e+00    1.501723e+00
  5.011430e+00    1.196931e+00
  5.034213e+00    1.166465e+00
  5.056995e+00    1.204269e+00
  5.079778e+00    9.746137e-01
  5.102561e+00    9.757710e-01
  5.125344e+00    2.058136e+00
  5.148127e+00    1.653906e+00
  5.170909e+00    1.003082e+00
  5.193692e+00    2.103788e+00
  5.216475e+00    1.684546e+00
  5.239258e+00    1.247432e+00
  5.262041e+00    2.251431e-01
  5.284823e+00    1.705715e-01
  5.307606e+00    0.000000e+00
  5.330389e+00    1.393093e+00
  5.353172e+00    1.375120e+00
  5.375955e+00    0.000000e+00
  5.398737e+00    0.000000e+00
  5.421520e+00    2.374897e+00
  5.444303e+00    2.210235e+00
  5.467086e+00    1.111148e+00
  5.489869e+00    7.262473e-01
  5.512651e+00    5.711212e-01
  5.535434e+00    1.476403e+00
  5.558217e+00    1.176465e+00
  5.581000e+00    6.621215e-01
  5.603782e+00    6.565112e-01
  5.626565e+00    9.270445e-01
  5.649348e+00    9.371589e-01
  5.672131e+00    7.394771e-01
  5.694914e+00    8.342326e-01
  5.717696e+00    1.673180e+00
  5.740479e+00    5.841060e+00
  5.763262e+00    2.024640e+01
  5.786045e+00    7.394646e+00
  5.808828e+00    8.978062e-01
  5.831610e+00    9.469062e-01
  5.854393e+00    1.226858e+00
  5.877176e+00    1.141968e+00
  5.899959e+00    1.035950e+00
  5.922742e+00    8.503769e-01
  5.945524e+00    1.704245e+00
  5.968307e+00    1.579694e+00
  5.991090e+00    9.207217e-01
  6.013873e+00    1.356657e+00
  6.036656e+00    9.852464e-01
  6.059438e+00    9.222794e-01
  6.082221e+00    1.818962e+00
  6.105004e+00    1.611802e+00
  6.127787e+00    1.050191e+00
  6.150570e+00    3.261289e-01
  6.173352e+00    7.152530e-01
  6.196135e+00    1.230174e+00
  6.218918e+00    2.681819e+00
  6.241701e+00    3.064188e+00
  6.264484e+00    1.806377e+00
  6.287266e+00    7.887583e-01
  6.310049e+00    4.933259e-01
  6.332832e+00    5.541992e-02
  6.355615e+00    9.167548e-01
  6.378397e+00    1.258414e+00
  6.401180e+00    1.391838e+00
  6.423963e+00    1.967891e+00
  6.446746e+00    2.073529e+00
  6.469529e+00    2.030446e+00
  6.492311e+00    1.097168e+00
  6.515094e+00    1.709219e+00
  6.537877e+00    3.344445e+00
  6.560660e+00    1.551317e+00
  6.583443e+00    1.295913e+00
  6.606225e+00    1.335526e+00
  6.629008e+00    1.469628e+00
  6.651791e+00    1.335616e+00
  6.674574e+00    1.130535e+00
  6.697357e+00    7.321702e-01
  6.720139e+00    8.579182e-01
  6.742922e+00    1.052038e+00
  6.765705e+00    1.327686e+00
  6.788488e+00    9.982337e-01
  6.811271e+00    6.258970e-01
  6.834053e+00    9.336497e-01
  6.856836e+00    8.622756e-01
  6.879619e+00    7.256327e-01
  6.902402e+00    3.229544e-01
  6.925185e+00    5.240794e-01
  6.947967e+00    1.016968e+00
  6.970750e+00    1.164463e+00
  6.993533e+00    1.476684e+00
  7.016316e+00    1.274253e+00
  7.039099e+00    9.923118e-01
  7.061881e+00    1.168677e+00
  7.084664e+00    1.054499e+00
  7.107447e+00    1.257495e+00
  7.130230e+00    1.283550e+00
  7.153013e+00    6.857791e-01
  7.175795e+00    2.680877e+00
  7.198578e+00    2.522437e+00
  7.221361e+00    2.322335e+00
  7.244144e+00    7.828100e-01
  7.266926e+00    8.873865e-01
  7.289709e+00    8.744308e-01
  7.312492e+00    9.349798e-01
  7.335275e+00    8.212688e-01
  7.358058e+00    5.770575e-01
  7.380840e+00    6.013628e-01
  7.403623e+00    9.387903e-01
  7.426406e+00    1.033847e+00
  7.449189e+00    1.469410e+00
  7.471972e+00    1.361137e+00
  7.494754e+00    1.417747e+00
  7.517537e+00    1.594187e+00
  7.540320e+00    1.231795e+00
  7.563103e+00    1.165599e+00
  7.585886e+00    1.783821e+00
  7.608668e+00    1.356355e+00
  7.631451e+00    1.075252e+00
  7.654234e+00    7.628502e-01
  7.677017e+00    9.736715e-01
  7.699800e+00    1.150545e+00
  7.722582e+00    1.705093e+00
  7.745365e+00    1.468018e+00
  7.768148e+00    1.279468e+00
  7.790931e+00    9.833410e-01
  7.813714e+00    4.677890e-01
  7.836496e+00    1.202868e+00
  7.859279e+00    1.447540e+00
  7.882062e+00    8.940734e-01
  7.904845e+00    7.926441e-01
  7.927628e+00    2.395911e-01
  7.950410e+00    4.541738e-01
  7.973193e+00    1.216629e+00
  7.995976e+00    1.471877e+00
  8.018759e+00    1.613801e+00
  8.041541e+00    1.321542e+01
  8.064324e+00    2.009208e+01
  8.087107e+00    2.206233e+00
  8.109890e+00    1.208599e+00
  8.132673e+00    1.106441e+00
  8.155455e+00    1.093431e+00
  8.178238e+00    1.585090e+00
  8.201021e+00    1.377344e+00
  8.223804e+00    5.284242e-01
  8.246587e+00    2.079443e+00
  8.269369e+00    1.380778e+00
  8.292152e+00    8.709089e-01
  8.314935e+00    1.233706e+00
  8.337718e+00    2.067019e+00
  8.360501e+00    2.031650e+00
  8.383283e+00    1.272363e+00
  8.406066e+00    9.893301e-01
  8.428849e+00    1.055895e+00
  8.451632e+00    1.074160e+00
  8.474415e+00    1.070641e+00
  8.497197e+00    1.220490e+00
  8.519980e+00    9.316020e-01
  8.542763e+00    1.141271e+00
  8.565546e+00    1.235655e+00
  8.588329e+00    0.000000e+00
  8.611111e+00    1.736397e+00
  8.633894e+00    1.192843e+00
  8.656677e+00    6.189681e-01
  8.679460e+00    2.016062e+00
  8.702243e+00    1.507965e+00
  8.725025e+00    1.126844e+00
  8.747808e+00    4.417440e-01
  8.770591e+00    9.680545e-01
  8.793374e+00    1.643943e+00
  8.816156e+00    2.408685e+00
  8.838939e+00    1.280566e+00
  8.861722e+00    1.328725e+00
  8.884505e+00    2.025757e+00
  8.907288e+00    2.180596e+00
  8.930070e+00    1.748331e+00
  8.952853e+00    1.005232e+00
  8.975636e+00    6.627789e-01
  8.998419e+00    4.919734e-01
  9.021202e+00    6.930202e-01
  9.043984e+00    1.973079e+00
  9.066767e+00    1.611852e+00
  9.089550e+00    1.494891e+00
  9.112333e+00    1.958137e+00
  9.135116e+00    1.554126e+00
  9.157898e+00    1.255588e+00
  9.180681e+00    7.237000e-01
  9.203464e+00    1.643518e+00
  9.226247e+00    1.653908e+00
  9.249030e+00    1.568897e+00
  9.271812e+00    1.328973e+00
  9.294595e+00    1.585298e+00
  9.317378e+00    1.913605e+00
  9.340161e+00    4.327012e-01
  9.362944e+00    1.156604e+00
  9.385726e+00    1.424205e+00
  9.408509e+00    1.444850e+00
  9.431292e+00    9.733642e-01
  9.454075e+00    8.737190e-01
  9.476858e+00    8.028201e-01
  9.499640e+00    4.406278e-01
  9.522423e+00    6.977484e-01
  9.545206e+00    9.287316e-01
  9.567989e+00    1.328483e+00
  9.590772e+00    9.211052e-01
  9.613554e+00    9.576026e-01
  9.636337e+00    1.062500e+00
  9.659120e+00    9.518017e-01
  9.681903e+00    1.148759e+00
  9.704685e+00    1.748943e+00
  9.727468e+00    9.978800e-01
  9.750251e+00    9.832752e-01
  9.773034e+00    9.099528e-01
  9.795817e+00    8.508099e-01
  9.818599e+00    1.153897e+00
  9.841382e+00    1.428074e+00
  9.864165e+00    1.602538e+00
  9.886948e+00    8.865328e-01
  9.909731e+00    7.146352e-01
  9.932513e+00    1.506701e+00
  9.955296e+00    3.591576e+00
  9.978079e+00    2.440894e+00
  1.000086e+01    1.113666e+00
  1.002364e+01    4.805882e-01
  1.004643e+01    9.859123e-01
  1.006921e+01    1.302615e+00
  1.009199e+01    1.022717e+00
  1.011478e+01    1.010709e+00
  1.013756e+01    1.253224e+00
  1.016034e+01    2.716479e+00
  1.018312e+01    1.650702e+00
  1.020591e+01    1.972987e+00
  1.022869e+01    1.512560e+00
  1.025147e+01    1.213807e+00
  1.027426e+01    1.096976e+00
  1.029704e+01    1.644890e+00
  1.031982e+01    1.706470e+00
  1.034260e+01    2.191929e+00
  1.036539e+01    4.650564e+00
  1.038817e+01    1.821740e+00
  1.041095e+01    1.509038e+00
  1.043373e+01    1.612039e+00
  1.045652e+01    1.203659e+00
  1.047930e+01    1.494573e+00
  1.050208e+01    9.360039e-01
  1.052487e+01    7.314017e-01
  1.054765e+01    1.138997e+00
  1.057043e+01    1.140146e+00
  1.059321e+01    8.944219e-01
  1.061600e+01    9.931380e-01
  1.063878e+01    1.102832e+00
  1.066156e+01    1.073563e+00
  1.068435e+01    1.411615e+00
  1.070713e+01    1.468750e+00
  1.072991e+01    1.038639e+00
  1.075269e+01    9.803544e-01
  1.077548e+01    1.314708e+00
  1.079826e+01    1.427643e+00
  1.082104e+01    1.280663e+00
  1.084383e+01    2.131692e+00
  1.086661e+01    1.500044e+00
  1.088939e+01    6.365176e-01
  1.091217e+01    8.114429e-01
  1.093496e+01    1.144903e+00
  1.095774e+01    6.958579e-01
  1.098052e+01    1.116550e+00
  1.100330e+01    1.121911e+00
  1.102609e+01    7.919170e-01
  1.104887e+01    1.238025e+00
  1.107165e+01    1.330122e+00
  1.109444e+01    1.155998e+00
  1.111722e+01    1.445664e+00
  1.114000e+01    1.491428e+00
  1.116278e+01    1.086375e+00
  1.118557e+01    1.034789e+00
  1.120835e+01    1.421571e+00
  1.123113e+01    1.215519e+00
  1.125392e+01    1.373876e+00
  1.127670e+01    1.262969e+00
  1.129948e+01    1.201389e+00
  1.132226e+01    9.408932e-01
  1.134505e+01    9.356514e-01
  1.136783e+01    7.130266e-01
  1.139061e+01    8.089248e-01
  1.141340e+01    9.945588e-01
  1.143618e+01    1.519588e+00
  1.145896e+01    1.293094e+00
  1.148174e+01    1.232979e+00
  1.150453e+01    9.880666e-01
  1.152731e+01    8.100440e-01
  1.155009e+01    9.795216e-01
  1.157287e+01    1.070946e+00
  1.159566e+01    1.065461e+00
  1.161844e+01    9.460954e-01
  1.164122e+01    1.178829e+00
  1.166401e+01    1.050912e+00
  1.168679e+01    1.121857e+00
  1.170957e+01    1.375331e+00
  1.173235e+01    1.302190e+00
  1.175514e+01    1.082216e+00
  1.177792e+01    8.537945e-01
  1.180070e+01    7.883564e-01
  1.182349e+01    1.135103e+00
  1.184627e+01    1.044017e+00
  1.186905e+01    1.542967e+00
  1.189183e+01    1.574668e+00
  1.191462e+01    1.088049e+00
  1.193740e+01    7.508775e-01
  1.196018e+01    6.804763e-01
  1.198296e+01    8.254135e-01
  1.200575e+01    1.292982e+00
  1.202853e+01    1.134596e+00
  1.205131e+01    1.003180e+00
  1.207410e+01    9.536877e-01
  1.209688e+01    1.125307e+00
  1.211966e+01    9.472449e-01
  1.214244e+01    1.267123e+00
  1.216523e+01    1.284406e+00
  1.218801e+01    1.306462e+00
  1.221079e+01    1.323552e+00
  1.223358e+01    1.406613e+00
  1.225636e+01    1.511023e+00
  1.227914e+01    1.423102e+00
  1.230192e+01    1.337276e+00
  1.232471e+01    1.407200e+00
  1.234749e+01    1.173634e+00
  1.237027e+01    1.184341e+00
  1.239306e+01    1.162030e+00
  1.241584e+01    1.151752e+00
  1.243862e+01    1.451983e+00
  1.246140e+01    1.412110e+00
  1.248419e+01    1.317639e+00
  1.250697e+01    1.076674e+00
  1.252975e+01    8.509706e-01
  1.255253e+01    8.775920e-01
  1.257532e+01    1.463709e+00
  1.259810e+01    1.463771e+00
  1.262088e+01    1.449677e+00
  1.264367e+01    1.536817e+00
  1.266645e+01    1.031227e+00
  1.268923e+01    9.324483e-01
  1.271201e+01    1.023634e+00
  1.273480e+01    1.268727e+00
  1.275758e+01    1.270326e+00
  1.278036e+01    1.538024e+00
  1.280315e+01    1.230245e+00
  1.282593e+01    1.094255e+00
  1.284871e+01    1.308500e+00
  1.287149e+01    1.400792e+00
  1.289428e+01    1.450162e+00
  1.291706e+01    1.140926e+00
  1.293984e+01    1.127661e+00
  1.296263e+01    1.034887e+00
  1.298541e+01    8.168605e-01
  1.300819e+01    7.794669e-01
  1.303097e+01    7.473477e-01
  1.305376e+01    9.580218e-01
  1.307654e+01    1.273975e+00
  1.309932e+01    1.275263e+00
  1.312210e+01    1.235544e+00
  1.314489e+01    1.291590e+00
  1.316767e+01    7.349373e-01
  1.319045e+01    7.520517e-01
  1.321324e+01    1.209787e+00
  1.323602e+01    9.897151e-01
  1.325880e+01    9.301471e-01
  1.328158e+01    1.306846e+00
  1.330437e+01    1.302675e+00
  1.332715e+01    1.283020e+00
  1.334993e+01    1.136164e+00
  1.337272e+01    1.193358e+00
  1.339550e+01    1.352666e+00
  1.341828e+01    1.294757e+00
  1.344106e+01    1.432419e+00
  1.346385e+01    1.095159e+00
  1.348663e+01    1.496073e+00
  1.350941e+01    1.368942e+00
  1.353219e+01    1.407283e+00
  1.355498e+01    1.095091e+00
  1.357776e+01    1.292290e+00
  1.360054e+01    1.511399e+00
  1.362333e+01    1.259691e+00
  1.364611e+01    1.256026e+00
  1.366889e+01    1.709641e+00
  1.369167e+01    1.555381e+00
  1.371446e+01    1.330319e+00
  1.373724e+01    1.320844e+00
  1.376002e+01    1.284008e+00
  1.378281e+01    1.343288e+00
  1.380559e+01    1.518198e+00
  1.382837e+01    1.106016e+00
  1.385115e+01    1.508722e+00
  1.387394e+01    1.572929e+00
  1.389672e+01    1.233623e+00
  1.391950e+01    1.413496e+00
  1.394229e+01    1.203333e+00
  1.396507e+01    1.265261e+00
  1.398785e+01    1.302541e+00
  1.401063e+01    1.696461e+00
  1.403342e+01    1.689925e+00
  1.405620e+01    1.206380e+00
  1.407898e+01    9.977559e-01
  1.410176e+01    1.041618e+00
  1.412455e+01    1.026661e+00
  1.414733e+01    1.245314e+00
  1.417011e+01    1.420246e+00
  1.419290e+01    1.327014e+00
  1.421568e+01    1.199958e+00
  1.423846e+01    1.270333e+00
  1.426124e+01    1.441403e+00
  1.428403e+01    1.380375e+00
  1.430681e+01    1.341221e+00
  1.432959e+01    1.038868e+00
  1.435238e+01    1.209168e+00
  1.437516e+01    1.696684e+00
  1.439794e+01    1.310864e+00
  1.442072e+01    7.974486e-01
  1.444351e+01    9.206728e-01
  1.446629e+01    1.352565e+00
  1.448907e+01    1.434550e+00
  1.451186e+01    1.356641e+00
  1.453464e+01    1.510202e+00
  1.455742e+01    1.481670e+00
  1.458020e+01    1.116476e+00
  1.460299e+01    1.028780e+00
  1.462577e+01    1.373001e+00
  1.464855e+01    1.496960e+00
  1.467133e+01    1.419247e+00
  1.469412e+01    1.165251e+00
  1.471690e+01    1.038677e+00
  1.473968e+01    1.018480e+00
  1.476247e+01    1.158165e+00
  1.478525e+01    1.435745e+00
  1.480803e+01    1.446136e+00
  1.483081e+01    1.210637e+00
  1.485360e+01    1.325269e+00
  1.487638e+01    1.322777e+00
  1.489916e+01    1.192746e+00
  1.492195e+01    1.168488e+00
  1.494473e+01    1.322145e+00
  1.496751e+01    1.300377e+00
  1.499029e+01    1.380898e+00
  1.501308e+01    1.317528e+00
  1.503586e+01    1.110472e+00
  1.505864e+01    1.142592e+00
  1.508142e+01    1.143523e+00
  1.510421e+01    1.271133e+00
  1.512699e+01    1.239900e+00
  1.514977e+01    1.260237e+00
  1.517256e+01    1.015733e+00
  1.519534e+01    1.252713e+00
  1.521812e+01    1.218728e+00
  1.524090e+01    1.121376e+00
  1.526369e+01    1.398610e+00
  1.528647e+01    7.885633e-01
  1.530925e+01    8.720285e-01
  1.533204e+01    1.197863e+00
  1.535482e+01    1.478137e+00
  1.537760e+01    1.407305e+00
  1.540038e+01    1.186287e+00
  1.542317e+01    1.182539e+00
  1.544595e+01    1.348776e+00
  1.546873e+01    1.372254e+00
  1.549152e+01    1.157363e+00
  1.551430e+01    1.233517e+00
  1.553708e+01    1.582262e+00
  1.555986e+01    1.358968e+00
  1.558265e+01    1.143955e+00
  1.560543e+01    1.406534e+00
  1.562821e+01    1.479824e+00
  1.565099e+01    1.213164e+00
  1.567378e+01    1.196531e+00
  1.569656e+01    1.281497e+00
  1.571934e+01    9.949169e-01
  1.574213e+01    8.969077e-01
  1.576491e+01    1.254347e+00
  1.578769e+01    1.119845e+00
  1.581047e+01    1.173251e+00
  1.583326e+01    1.083232e+00
  1.585604e+01    9.117517e-01
  1.587882e+01    1.270004e+00
  1.590161e+01    1.386034e+00
  1.592439e+01    1.553430e+00
  1.594717e+01    1.376921e+00
  1.596995e+01    1.362357e+00
  1.599274e+01    1.143655e+00
  1.601552e+01    1.106085e+00
  1.603830e+01    1.340354e+00
  1.606109e+01    1.506831e+00
  1.608387e+01    1.252186e+00
  1.610665e+01    1.372140e+00
  1.612943e+01    1.477495e+00
  1.615222e+01    1.430763e+00
  1.617500e+01    1.338896e+00
  1.619778e+01    1.224767e+00
  1.622056e+01    1.211337e+00
  1.624335e+01    1.233876e+00
  1.626613e+01    1.209520e+00
  1.628891e+01    1.335465e+00
  1.631170e+01    1.411639e+00
  1.633448e+01    1.302565e+00
  1.635726e+01    1.195464e+00
  1.638004e+01    1.179835e+00
  1.640283e+01    1.363407e+00
  1.642561e+01    9.559882e-01
  1.644839e+01    1.155537e+00
  1.647118e+01    1.180976e+00
  1.649396e+01    1.037961e+00
  1.651674e+01    1.047370e+00
  1.653952e+01    9.902381e-01
  1.656231e+01    1.336429e+00
  1.658509e+01    1.249757e+00
  1.660787e+01    1.469929e+00
  1.663065e+01    1.682063e+00
  1.665344e+01    1.725300e+00
  1.667622e+01    1.428099e+00
  1.669900e+01    1.377664e+00
  1.672179e+01    1.195057e+00
  1.674457e+01    1.153322e+00
  1.676735e+01    1.409817e+00
  1.679013e+01    1.368473e+00
  1.681292e+01    1.518210e+00
  1.683570e+01    1.441003e+00
  1.685848e+01    1.270012e+00
  1.688127e+01    1.247882e+00
  1.690405e+01    1.282421e+00
  1.692683e+01    1.210978e+00
  1.694961e+01    1.148942e+00
  1.697240e+01    1.061900e+00
  1.699518e+01    1.190377e+00
  1.701796e+01    1.203385e+00
  1.704075e+01    1.283560e+00
  1.706353e+01    1.475996e+00
  1.708631e+01    1.338263e+00
  1.710909e+01    1.376024e+00
  1.713188e+01    1.167694e+00
  1.715466e+01    1.124386e+00
  1.717744e+01    1.342356e+00
  1.720022e+01    1.110338e+00
  1.722301e+01    1.327994e+00
  1.724579e+01    1.315720e+00
  1.726857e+01    1.440021e+00
  1.729136e+01    1.449078e+00
  1.731414e+01    1.232458e+00
  1.733692e+01    1.463829e+00
  1.735970e+01    1.346212e+00
  1.738249e+01    1.435924e+00
  1.740527e+01    1.486876e+00
  1.742805e+01    1.219494e+00
  1.745084e+01    1.214688e+00
  1.747362e+01    1.185851e+00
  1.749640e+01    1.386142e+00
  1.751918e+01    1.465218e+00
  1.754197e+01    1.494563e+00
  1.756475e+01    1.190359e+00
  1.758753e+01    1.441540e+00
  1.761032e+01    1.269200e+00
  1.763310e+01    1.255417e+00
  1.765588e+01    1.265322e+00
  1.767866e+01    1.404393e+00
  1.770145e+01    1.471350e+00
  1.772423e+01    1.669521e+00
  1.774701e+01    1.451462e+00
  1.776979e+01    1.333330e+00
  1.779258e+01    1.426306e+00
  1.781536e+01    1.104977e+00
  1.783814e+01    9.957702e-01
  1.786093e+01    1.061826e+00
  1.788371e+01    1.091620e+00
  1.790649e+01    1.237529e+00
  1.792927e+01    1.426223e+00
  1.795206e+01    1.441900e+00
  1.797484e+01    1.197936e+00
  1.799762e+01    1.107281e+00
  1.802041e+01    1.292041e+00
  1.804319e+01    1.225781e+00
  1.806597e+01    1.116753e+00
  1.808875e+01    1.229835e+00
  1.811154e+01    1.455805e+00
  1.813432e+01    1.276865e+00
  1.815710e+01    1.504469e+00
  1.817989e+01    1.402710e+00
  1.820267e+01    1.329646e+00
  1.822545e+01    1.331039e+00
  1.824823e+01    1.342775e+00
  1.827102e+01    1.244571e+00
  1.829380e+01    1.322935e+00
  1.831658e+01    1.139831e+00
  1.833936e+01    1.206942e+00
  1.836215e+01    1.361337e+00
  1.838493e+01    1.242342e+00
  1.840771e+01    1.059336e+00
  1.843050e+01    1.198320e+00
  1.845328e+01    1.056372e+00
  1.847606e+01    1.095742e+00
  1.849884e+01    1.143047e+00
  1.852163e+01    1.213067e+00
  1.854441e+01    1.351297e+00
  1.856719e+01    1.329265e+00
  1.858998e+01    1.039382e+00
  1.861276e+01    1.043902e+00
  1.863554e+01    1.193331e+00
  1.865832e+01    1.167485e+00
  1.868111e+01    1.111900e+00
  1.870389e+01    1.083579e+00
  1.872667e+01    1.246686e+00
  1.874945e+01    1.122489e+00
  1.877224e+01    1.027465e+00
  1.879502e+01    1.100209e+00
  1.881780e+01    1.052495e+00
  1.884059e+01    1.196013e+00
  1.886337e+01    1.248660e+00
  1.888615e+01    1.133651e+00
  1.890893e+01    1.152933e+00
  1.893172e+01    1.080447e+00
  1.895450e+01    1.192100e+00
  1.897728e+01    1.332178e+00
  1.900007e+01    1.303364e+00
  1.902285e+01    1.293934e+00
  1.904563e+01    1.127808e+00
  1.906841e+01    1.291198e+00
  1.909120e+01    1.246330e+00
  1.911398e+01    1.187864e+00
  1.913676e+01    1.161316e+00
  1.915955e+01    1.095661e+00
  1.918233e+01    1.251891e+00
  1.920511e+01    1.112743e+00
  1.922789e+01    9.953247e-01
  1.925068e+01    1.231004e+00
  1.927346e+01    1.304082e+00
  1.929624e+01    1.173963e+00
  1.931902e+01    9.953930e-01
  1.934181e+01    1.183714e+00
  1.936459e+01    1.101039e+00
  1.938737e+01    1.086972e+00
  1.941016e+01    1.307375e+00
  1.943294e+01    1.090871e+00
  1.945572e+01    1.122089e+00
  1.947850e+01    1.295281e+00
  1.950129e+01    1.184566e+00
  1.952407e+01    1.230382e+00
  1.954685e+01    1.041382e+00
  1.956964e+01    1.204059e+00
  1.959242e+01    1.190780e+00
  1.961520e+01    1.075222e+00
  1.963798e+01    1.195168e+00
  1.966077e+01    1.118652e+00
  1.968355e+01    1.110777e+00
  1.970633e+01    1.086843e+00
  1.972912e+01    1.079720e+00
  1.975190e+01    1.069946e+00
  1.977468e+01    1.070767e+00
  1.979746e+01    1.230565e+00
  1.982025e+01    1.135835e+00
  1.984303e+01    1.114767e+00
  1.986581e+01    1.183880e+00
  1.988859e+01    1.008088e+00
  1.991138e+01    1.085633e+00
  1.993416e+01    1.218622e+00
  1.995694e+01    1.266325e+00
  1.997973e+01    1.110632e+00
  2.000251e+01    1.048776e+00
  2.002529e+01    1.112012e+00
  2.004807e+01    1.330199e+00
  2.007086e+01    1.235336e+00
  2.009364e+01    1.078547e+00
  2.011642e+01    1.093663e+00
  2.013921e+01    1.100738e+00
  2.016199e+01    1.099373e+00
  2.018477e+01    1.105763e+00
  2.020755e+01    1.125491e+00
  2.023034e+01    1.063899e+00
  2.025312e+01    1.110380e+00
  2.027590e+01    1.225856e+00
  2.029868e+01    1.178240e+00
  2.032147e+01    1.126933e+00
  2.034425e+01    1.184725e+00
  2.036703e+01    1.184677e+00
  2.038982e+01    1.183855e+00
  2.041260e+01    1.148144e+00
  2.043538e+01    1.043892e+00
  2.045816e+01    1.044526e+00
  2.048095e+01    1.051172e+00
  2.050373e+01    1.144160e+00
  2.052651e+01    1.232397e+00
  2.054930e+01    9.735904e-01
  2.057208e+01    9.780324e-01
  2.059486e+01    1.163766e+00
  2.061764e+01    1.133732e+00
  2.064043e+01    1.243897e+00
  2.066321e+01    1.087064e+00
  2.068599e+01    9.477384e-01
  2.070878e+01    9.683298e-01
  2.073156e+01    1.181281e+00
  2.075434e+01    1.168829e+00
  2.077712e+01    1.251506e+00
  2.079991e+01    1.290224e+00
  2.082269e+01    1.246117e+00
  2.084547e+01    1.124776e+00
  2.086825e+01    1.154953e+00
  2.089104e+01    1.310569e+00
  2.091382e+01    1.346616e+00
  2.093660e+01    1.259834e+00
  2.095939e+01    1.085539e+00
  2.098217e+01    1.071285e+00
  2.100495e+01    1.168220e+00
  2.102773e+01    1.040791e+00
  2.105052e+01    1.014100e+00
  2.107330e+01    1.058200e+00
  2.109608e+01    9.576195e-01
  2.111887e+01    1.024650e+00
  2.114165e+01    1.229776e+00
  2.116443e+01    1.165623e+00
  2.118721e+01    1.264583e+00
  2.121000e+01    1.272277e+00
  2.123278e+01    1.021748e+00
  2.125556e+01    1.061716e+00
  2.127835e+01    1.177879e+00
  2.130113e+01    1.277668e+00
  2.132391e+01    1.150094e+00
  2.134669e+01    1.201026e+00
  2.136948e+01    1.250358e+00
  2.139226e+01    1.205481e+00
  2.141504e+01    1.013731e+00
  2.143782e+01    1.099776e+00
  2.146061e+01    1.055940e+00
  2.148339e+01    1.186594e+00
  2.150617e+01    1.191055e+00
  2.152896e+01    1.057526e+00
  2.155174e+01    1.100837e+00
  2.157452e+01    1.128734e+00
  2.159730e+01    1.182274e+00
  2.162009e+01    1.168229e+00
  2.164287e+01    1.088029e+00
  2.166565e+01    1.041867e+00
  2.168844e+01    1.100754e+00
  2.171122e+01    1.106901e+00
  2.173400e+01    1.131710e+00
  2.175678e+01    1.068141e+00
  2.177957e+01    1.096734e+00
  2.180235e+01    1.034801e+00
  2.182513e+01    1.078977e+00
  2.184791e+01    1.139453e+00
  2.187070e+01    1.267685e+00
  2.189348e+01    1.094510e+00
  2.191626e+01    1.234331e+00
  2.193905e+01    1.230968e+00
  2.196183e+01    1.135910e+00
  2.198461e+01    1.223102e+00
  2.200739e+01    1.042688e+00
  2.203018e+01    1.174113e+00
  2.205296e+01    1.170873e+00
  2.207574e+01    1.169859e+00
  2.209853e+01    1.260924e+00
  2.212131e+01    1.074780e+00
  2.214409e+01    1.215814e+00
  2.216687e+01    1.225441e+00
  2.218966e+01    1.110618e+00
  2.221244e+01    1.172777e+00
  2.223522e+01    1.147372e+00
  2.225801e+01    1.263537e+00
  2.228079e+01    1.092482e+00
  2.230357e+01    1.178990e+00
  2.232635e+01    1.086880e+00
  2.234914e+01    1.096721e+00
  2.237192e+01    1.220936e+00
  2.239470e+01    1.114032e+00
  2.241748e+01    9.619046e-01
  2.244027e+01    1.090396e+00
  2.246305e+01    1.079539e+00
  2.248583e+01    1.046124e+00
  2.250862e+01    1.112610e+00
  2.253140e+01    1.113186e+00
  2.255418e+01    1.128086e+00
  2.257696e+01    1.124501e+00
  2.259975e+01    1.068022e+00
  2.262253e+01    1.036598e+00
  2.264531e+01    1.051718e+00
  2.266810e+01    1.044531e+00
  2.269088e+01    1.047997e+00
  2.271366e+01    1.239805e+00
  2.273644e+01    1.117596e+00
  2.275923e+01    1.132105e+00
  2.278201e+01    1.138479e+00
  2.280479e+01    1.191973e+00
  2.282758e+01    1.126112e+00
  2.285036e+01    1.083237e+00
  2.287314e+01    1.102254e+00
  2.289592e+01    1.241238e+00
  2.291871e+01    1.150862e+00
  2.294149e+01    1.117833e+00
  2.296427e+01    1.084440e+00
  2.298705e+01    1.059636e+00
  2.300984e+01    1.134566e+00
  2.303262e+01    1.118002e+00
  2.305540e+01    1.108080e+00
  2.307819e+01    1.152623e+00
  2.310097e+01    1.119610e+00
  2.312375e+01    1.129627e+00
  2.314653e+01    1.052231e+00
  2.316932e+01    1.118769e+00
  2.319210e+01    1.274854e+00
  2.321488e+01    1.094593e+00
  2.323767e+01    1.096602e+00
  2.326045e+01    1.013233e+00
  2.328323e+01    1.084330e+00
  2.330601e+01    1.094930e+00
  2.332880e+01    1.114929e+00
  2.335158e+01    1.131284e+00
  2.337436e+01    9.990577e-01
  2.339714e+01    1.220940e+00
  2.341993e+01    1.057315e+00
  2.344271e+01    1.145961e+00
  2.346549e+01    1.174743e+00
  2.348828e+01    1.192735e+00
  2.351106e+01    1.182621e+00
  2.353384e+01    1.142151e+00
  2.355662e+01    1.081721e+00
  2.357941e+01    1.137740e+00
  2.360219e+01    1.076189e+00
  2.362497e+01    1.209025e+00
  2.364776e+01    1.094344e+00
  2.367054e+01    1.081436e+00
  2.369332e+01    1.170404e+00
  2.371610e+01    1.068805e+00
  2.373889e+01    1.050443e+00
  2.376167e+01    1.179976e+00
  2.378445e+01    1.207099e+00
  2.380724e+01    1.063921e+00
  2.383002e+01    1.092482e+00
  2.385280e+01    1.057227e+00
  2.387558e+01    1.033695e+00
  2.389837e+01    1.121705e+00
  2.392115e+01    1.089915e+00
  2.394393e+01    1.130279e+00
  2.396671e+01    1.067063e+00
  2.398950e+01    1.113184e+00
  2.401228e+01    1.133732e+00
  2.403506e+01    1.123119e+00
  2.405785e+01    1.176556e+00
  2.408063e+01    1.100943e+00
  2.410341e+01    1.085008e+00
  2.412619e+01    1.144475e+00
  2.414898e+01    1.180532e+00
  2.417176e+01    1.248322e+00
  2.419454e+01    1.120952e+00
  2.421733e+01    1.124919e+00
  2.424011e+01    1.088000e+00
  2.426289e+01    1.096853e+00
  2.428567e+01    1.104342e+00
  2.430846e+01    1.172465e+00
  2.433124e+01    1.103155e+00
  2.435402e+01    1.087862e+00
  2.437681e+01    1.225586e+00
  2.439959e+01    1.087248e+00
  2.442237e+01    1.153058e+00
  2.444515e+01    1.118999e+00
  2.446794e+01    1.100741e+00
  2.449072e+01    1.100609e+00
  2.451350e+01    1.068239e+00
  2.453628e+01    1.030471e+00
  2.455907e+01    1.094860e+00
  2.458185e+01    1.078278e+00
  2.460463e+01    1.135116e+00
  2.462742e+01    1.151142e+00
  2.465020e+01    1.094159e+00
  2.467298e+01    1.201440e+00
  2.469576e+01    1.210294e+00
  2.471855e+01    1.125295e+00
  2.474133e+01    1.087727e+00
  2.476411e+01    1.009292e+00
  2.478690e+01    1.109312e+00
  2.480968e+01    1.145985e+00
  2.483246e+01    1.099230e+00
  2.485524e+01    1.122211e+00
  2.487803e+01    1.187019e+00
  2.490081e+01    1.145868e+00
  2.492359e+01    1.156781e+00
  2.494637e+01    1.116712e+00
  2.496916e+01    1.175500e+00
  2.499194e+01    1.102798e+00
  2.501472e+01    1.051700e+00
  2.503751e+01    1.081248e+00
  2.506029e+01    1.096491e+00
  2.508307e+01    1.212487e+00
  2.510585e+01    1.113568e+00
  2.512864e+01    1.118437e+00
  2.515142e+01    1.023149e+00
  2.517420e+01    1.080371e+00
  2.519699e+01    1.047652e+00
  2.521977e+01    1.169122e+00
  2.524255e+01    1.201062e+00
  2.526533e+01    1.137646e+00
  2.528812e+01    1.147344e+00
  2.531090e+01    1.083469e+00
  2.533368e+01    1.157682e+00
  2.535647e+01    1.097053e+00
  2.537925e+01    1.166806e+00
  2.540203e+01    1.108072e+00
  2.542481e+01    1.146728e+00
  2.544760e+01    1.155169e+00
  2.547038e+01    1.137537e+00
  2.549316e+01    1.184188e+00
  2.551594e+01    1.092239e+00
  2.553873e+01    1.119378e+00
  2.556151e+01    1.137718e+00
  2.558429e+01    1.140557e+00
  2.560708e+01    1.153870e+00
  2.562986e+01    1.125631e+00
  2.565264e+01    1.138141e+00
  2.567542e+01    1.118150e+00
  2.569821e+01    1.155831e+00
  2.572099e+01    1.080401e+00
  2.574377e+01    1.099187e+00
  2.576656e+01    1.126358e+00
  2.578934e+01    1.092860e+00
  2.581212e+01    1.179252e+00
  2.583490e+01    1.161033e+00
  2.585769e+01    1.169997e+00
  2.588047e+01    1.068158e+00
  2.590325e+01    1.175659e+00
  2.592604e+01    1.208333e+00
  2.594882e+01    1.179413e+00
  2.597160e+01    1.162600e+00
  2.599438e+01    1.233687e+00
  2.601717e+01    1.065706e+00
  2.603995e+01    1.107666e+00
  2.606273e+01    1.092694e+00
  2.608551e+01    1.138216e+00
  2.610830e+01    1.149211e+00
  2.613108e+01    1.141566e+00
  2.615386e+01    1.145848e+00
  2.617665e+01    1.197072e+00
  2.619943e+01    1.125141e+00
  2.622221e+01    1.053518e+00
  2.624499e+01    1.051520e+00
  2.626778e+01    1.133214e+00
  2.629056e+01    1.210171e+00
  2.631334e+01    1.128483e+00
  2.633613e+01    1.153248e+00
  2.635891e+01    1.057584e+00
  2.638169e+01    1.112982e+00
  2.640447e+01    1.170175e+00
  2.642726e+01    1.091246e+00
  2.645004e+01    1.102483e+00
  2.647282e+01    1.112501e+00
  2.649560e+01    1.154349e+00
  2.651839e+01    1.107701e+00
  2.654117e+01    1.154389e+00
  2.656395e+01    1.075896e+00
  2.658674e+01    1.159169e+00
  2.660952e+01    1.219061e+00
  2.663230e+01    1.115536e+00
  2.665508e+01    1.119436e+00
  2.667787e+01    1.060776e+00
  2.670065e+01    1.169521e+00
  2.672343e+01    1.185517e+00
  2.674622e+01    1.139431e+00
  2.676900e+01    1.097881e+00
  2.679178e+01    1.176702e+00
  2.681456e+01    1.165646e+00
  2.683735e+01    1.115435e+00
  2.686013e+01    1.121962e+00
  2.688291e+01    1.190764e+00
  2.690570e+01    1.145769e+00
  2.692848e+01    1.112232e+00
  2.695126e+01    1.124510e+00
  2.697404e+01    1.131118e+00
  2.699683e+01    1.199236e+00
  2.701961e+01    1.141401e+00
  2.704239e+01    1.223059e+00
  2.706517e+01    1.114247e+00
  2.708796e+01    1.126063e+00
  2.711074e+01    1.122781e+00
  2.713352e+01    1.140407e+00
  2.715631e+01    1.165729e+00
  2.717909e+01    1.131945e+00
  2.720187e+01    1.132660e+00
  2.722465e+01    1.156915e+00
  2.724744e+01    1.212589e+00
  2.727022e+01    1.136912e+00
  2.729300e+01    1.159875e+00
  2.731579e+01    1.184115e+00
  2.733857e+01    1.179543e+00
  2.736135e+01    1.232430e+00
  2.738413e+01    1.198551e+00
  2.740692e+01    1.140731e+00
  2.742970e+01    1.199368e+00
  2.745248e+01    1.165357e+00
  2.747527e+01    1.182810e+00
  2.749805e+01    1.220762e+00
  2.752083e+01    1.216175e+00
  2.754361e+01    1.226548e+00
  2.756640e+01    1.254062e+00
  2.758918e+01    1.235857e+00
  2.761196e+01    1.233120e+00
  2.763474e+01    1.305320e+00
  2.765753e+01    1.286937e+00
  2.768031e+01    1.241567e+00
  2.770309e+01    1.354529e+00
  2.772588e+01    1.309962e+00
  2.774866e+01    1.386560e+00
  2.777144e+01    1.334299e+00
  2.779422e+01    1.357719e+00
  2.781701e+01    1.357264e+00
  2.783979e+01    1.356026e+00
  2.786257e+01    1.418034e+00
  2.788536e+01    1.461867e+00
  2.790814e+01    1.419412e+00
  2.793092e+01    1.465213e+00
  2.795370e+01    1.495203e+00
  2.797649e+01    1.515792e+00
  2.799927e+01    1.480972e+00
  2.802205e+01    1.487980e+00
  2.804483e+01    1.437227e+00
  2.806762e+01    1.556882e+00
  2.809040e+01    1.492096e+00
  2.811318e+01    1.497477e+00
  2.813597e+01    1.418827e+00
  2.815875e+01    1.556946e+00
  2.818153e+01    1.447344e+00
  2.820431e+01    1.442383e+00
  2.822710e+01    1.550043e+00
  2.824988e+01    1.407838e+00
  2.827266e+01    1.456412e+00
  2.829545e+01    1.448678e+00
  2.831823e+01    1.449534e+00
  2.834101e+01    1.482651e+00
  2.836379e+01    1.402381e+00
  2.838658e+01    1.370775e+00
  2.840936e+01    1.438821e+00
  2.843214e+01    1.442892e+00
  2.845493e+01    1.366805e+00
  2.847771e+01    1.397720e+00
  2.850049e+01    1.411192e+00
  2.852327e+01    1.430505e+00
  2.854606e+01    1.447327e+00
  2.856884e+01    1.347848e+00
  2.859162e+01    1.374697e+00
  2.861440e+01    1.328609e+00
  2.863719e+01    1.406238e+00
  2.865997e+01    1.508965e+00
  2.868275e+01    1.432684e+00
  2.870554e+01    1.316401e+00
  2.872832e+01    1.384043e+00
  2.875110e+01    1.347922e+00
  2.877388e+01    1.328034e+00
  2.879667e+01    1.341470e+00
  2.881945e+01    1.376089e+00
  2.884223e+01    1.439763e+00
  2.886502e+01    1.389380e+00
  2.888780e+01    1.365265e+00
  2.891058e+01    1.403048e+00
  2.893336e+01    1.393332e+00
  2.895615e+01    1.426075e+00
  2.897893e+01    1.410212e+00
  2.900171e+01    1.403099e+00
  2.902450e+01    1.392994e+00
  2.904728e+01    1.291963e+00
  2.907006e+01    1.482661e+00
  2.909284e+01    1.460252e+00
  2.911563e+01    1.498347e+00
  2.913841e+01    1.494450e+00
  2.916119e+01    1.436146e+00
  2.918397e+01    1.381328e+00
  2.920676e+01    1.374472e+00
  2.922954e+01    1.393577e+00
  2.925232e+01    1.478028e+00
  2.927511e+01    1.482272e+00
  2.929789e+01    1.423288e+00
  2.932067e+01    1.365994e+00
  2.934345e+01    1.503062e+00
  2.936624e+01    1.460625e+00
  2.938902e+01    1.475899e+00
  2.941180e+01    1.488536e+00
  2.943459e+01    1.444059e+00
  2.945737e+01    1.459720e+00
  2.948015e+01    1.406340e+00
  2.950293e+01    1.457883e+00
  2.952572e+01    1.456141e+00
  2.954850e+01    1.467848e+00
  2.957128e+01    1.389523e+00
  2.959407e+01    1.460705e+00
  2.961685e+01    1.434120e+00
  2.963963e+01    1.481271e+00
  2.966241e+01    1.464100e+00
  2.968520e+01    1.446682e+00
  2.970798e+01    1.523219e+00
  2.973076e+01    1.333287e+00
  2.975354e+01    1.435667e+00
  2.977633e+01    1.397054e+00
  2.979911e+01    1.396495e+00
  2.982189e+01    1.375328e+00
  2.984468e+01    1.406063e+00
  2.986746e+01    1.333931e+00
  2.989024e+01    1.384071e+00
  2.991302e+01    1.303457e+00
  2.993581e+01    1.441423e+00
  2.995859e+01    1.535164e+00
  2.998137e+01    1.372902e+00
  3.000416e+01    1.334438e+00
  3.002694e+01    1.424803e+00
  3.004972e+01    1.336198e+00
  3.007250e+01    1.284025e+00
  3.009529e+01    1.382274e+00
  3.011807e+01    1.318806e+00
  3.014085e+01    1.285617e+00
  3.016363e+01    1.310063e+00
  3.018642e+01    1.249722e+00
  3.020920e+01    1.235620e+00
  3.023198e+01    1.279917e+00
  3.025477e+01    1.333323e+00
  3.027755e+01    1.233577e+00
  3.030033e+01    1.225037e+00
  3.032311e+01    1.163858e+00
  3.034590e+01    1.257376e+00
  3.036868e+01    1.220020e+00
  3.039146e+01    1.252795e+00
  3.041425e+01    1.315566e+00
  3.043703e+01    1.207124e+00
  3.045981e+01    1.225384e+00
  3.048259e+01    1.278966e+00
  3.050538e+01    1.253443e+00
  3.052816e+01    1.250558e+00
  3.055094e+01    1.134840e+00
  3.057373e+01    1.127945e+00
  3.059651e+01    1.198821e+00
  3.061929e+01    1.145459e+00
  3.064207e+01    1.187371e+00
  3.066486e+01    1.215642e+00
  3.068764e+01    1.266084e+00
  3.071042e+01    1.259740e+00
  3.073320e+01    1.184984e+00
  3.075599e+01    1.162528e+00
  3.077877e+01    1.189707e+00
  3.080155e+01    1.115044e+00
  3.082434e+01    1.205615e+00
  3.084712e+01    1.122244e+00
  3.086990e+01    1.129464e+00
  3.089268e+01    1.090635e+00
  3.091547e+01    1.090793e+00
  3.093825e+01    1.105830e+00
  3.096103e+01    1.256798e+00
  3.098382e+01    1.116062e+00
  3.100660e+01    1.139851e+00
  3.102938e+01    1.119518e+00
  3.105216e+01    1.099037e+00
  3.107495e+01    1.146263e+00
  3.109773e+01    1.174803e+00
  3.112051e+01    1.075250e+00
  3.114330e+01    1.086388e+00
  3.116608e+01    1.229866e+00
  3.118886e+01    1.121911e+00
  3.121164e+01    1.185800e+00
  3.123443e+01    1.214618e+00
  3.125721e+01    1.167210e+00
  3.127999e+01    1.286874e+00
  3.130277e+01    1.190304e+00
  3.132556e+01    1.074368e+00
  3.134834e+01    1.057121e+00
  3.137112e+01    1.174877e+00
  3.139391e+01    1.134113e+00
  3.141669e+01    1.278713e+00
  3.143947e+01    1.181795e+00
  3.146225e+01    1.170120e+00
  3.148504e+01    1.206701e+00
  3.150782e+01    1.156412e+00
  3.153060e+01    1.173124e+00
  3.155339e+01    1.190299e+00
  3.157617e+01    1.067165e+00
  3.159895e+01    1.114339e+00
  3.162173e+01    1.057994e+00
  3.164452e+01    1.101491e+00
  3.166730e+01    1.164291e+00
  3.169008e+01    1.181553e+00
  3.171286e+01    1.160269e+00
  3.173565e+01    1.175998e+00
  3.175843e+01    1.077771e+00
  3.178121e+01    1.123747e+00
  3.180400e+01    1.123943e+00
  3.182678e+01    1.148594e+00
  3.184956e+01    1.065319e+00
  3.187234e+01    1.088724e+00
  3.189513e+01    9.802958e-01
  3.191791e+01    1.094486e+00
  3.194069e+01    1.147691e+00
  3.196348e+01    1.128626e+00
  3.198626e+01    1.068936e+00
  3.200904e+01    1.212273e+00
  3.203182e+01    1.159276e+00
  3.205461e+01    1.128121e+00
  3.207739e+01    1.018495e+00
  3.210017e+01    1.020437e+00
  3.212296e+01    1.143959e+00
  3.214574e+01    1.100914e+00
  3.216852e+01    1.043982e+00
  3.219130e+01    1.088591e+00
  3.221409e+01    1.144867e+00
  3.223687e+01    1.139783e+00
  3.225965e+01    1.168356e+00
  3.228243e+01    1.211513e+00
  3.230522e+01    1.154573e+00
  3.232800e+01    1.178001e+00
  3.235078e+01    1.082460e+00
  3.237357e+01    1.174996e+00
  3.239635e+01    1.259502e+00
  3.241913e+01    1.105457e+00
  3.244191e+01    1.100241e+00
  3.246470e+01    1.084370e+00
  3.248748e+01    1.081129e+00
  3.251026e+01    1.070247e+00
  3.253305e+01    1.039038e+00
  3.255583e+01    1.051784e+00
  3.257861e+01    1.213165e+00
  3.260139e+01    1.176526e+00
  3.262418e+01    1.112177e+00
  3.264696e+01    1.034733e+00
  3.266974e+01    1.155261e+00
  3.269253e+01    1.071449e+00
  3.271531e+01    9.920322e-01
  3.273809e+01    1.123505e+00
  3.276087e+01    1.130255e+00
  3.278366e+01    9.526395e-01
  3.280644e+01    9.975017e-01
  3.282922e+01    9.934529e-01
  3.285200e+01    1.095159e+00
  3.287479e+01    1.264980e+00
  3.289757e+01    1.126052e+00
  3.292035e+01    1.028713e+00
  3.294314e+01    1.181949e+00
  3.296592e+01    1.199794e+00
  3.298870e+01    1.141968e+00
  3.301148e+01    1.202167e+00
  3.303427e+01    1.157830e+00
  3.305705e+01    1.255747e+00
  3.307983e+01    1.183181e+00
  3.310262e+01    1.207520e+00
  3.312540e+01    1.134668e+00
  3.314818e+01    1.041952e+00
  3.317096e+01    1.068430e+00
  3.319375e+01    1.157771e+00
  3.321653e+01    1.262839e+00
  3.323931e+01    1.036085e+00
  3.326209e+01    9.395633e-01
  3.328488e+01    1.059240e+00
  3.330766e+01    1.271381e+00
  3.333044e+01    1.266830e+00
  3.335323e+01    1.233360e+00
  3.337601e+01    1.008608e+00
  3.339879e+01    1.409377e+00
  3.342157e+01    5.488797e-01
  3.344436e+01    1.518128e+00
  3.346714e+01    1.063829e+00
  3.348992e+01    1.541461e+00
  3.351271e+01    1.527832e+00
  3.353549e+01    0.000000e+00
  3.355827e+01    0.000000e+00
  3.358105e+01    0.000000e+00
  3.360384e+01    0.000000e+00
  3.362662e+01    0.000000e+00
  3.364940e+01    0.000000e+00
  3.367219e+01    0.000000e+00
  3.369497e+01    0.000000e+00
  3.371775e+01    0.000000e+00
