# == pyFAI calibration ==
# Distance Sample to Detector: 0.21311058206280517 m
# PONI: 2.037e-01, 1.993e-01 m
# Rotations: -0.005459 0.000134 0.000000 rad
# 
# == Fit2d calibration ==
# Distance Sample-beamCenter: 213.114 mm
# Center: x=1002.134, y=1018.730 pix
# Tilt: 0.313 deg  TiltPlanRot: 1.411 deg
# 
# Detector Perkin detector	 PixelSize= 2.000e-04, 2.000e-04 m
#    Detector has a mask: False 
#    Detector has a dark current: False 
#    detector has a flat field: False 
# 
# Wavelength: 1.675e-11 m
# Mask applied: provided
# Dark current applied: False
# Flat field applied: False
# Polarization factor: None
# Normalization factor: 1.0
# --> data/chi_bkgsub_true/C_Tatania5-29.0-average.chi
#        q_A^-1             I 
  2.199784e-02    1.568977e+00
  4.478064e-02    1.170450e+00
  6.756343e-02    1.983284e+00
  9.034623e-02    1.656172e+00
  1.131290e-01    1.481277e+00
  1.359118e-01    1.400248e+00
  1.586946e-01    1.471704e+00
  1.814774e-01    1.257697e+00
  2.042602e-01    1.532330e+00
  2.270430e-01    2.162010e+00
  2.498258e-01    3.476670e+00
  2.726086e-01    7.162137e+00
  2.953914e-01    2.267161e+01
  3.181742e-01    5.412856e+01
  3.409570e-01    7.544616e+01
  3.637398e-01    6.750669e+01
  3.865226e-01    6.774253e+01
  4.093054e-01    6.408093e+01
  4.320881e-01    4.166990e+01
  4.548709e-01    2.198760e+01
  4.776537e-01    1.227123e+01
  5.004365e-01    9.741570e+00
  5.232193e-01    8.820252e+00
  5.460021e-01    9.491031e+00
  5.687849e-01    1.075348e+01
  5.915677e-01    1.109543e+01
  6.143505e-01    1.047055e+01
  6.371333e-01    8.758170e+00
  6.599161e-01    7.482049e+00
  6.826989e-01    7.386597e+00
  7.054817e-01    7.924631e+00
  7.282645e-01    7.521713e+00
  7.510473e-01    6.931381e+00
  7.738301e-01    6.983161e+00
  7.966129e-01    6.909392e+00
  8.193956e-01    6.767270e+00
  8.421784e-01    6.264987e+00
  8.649612e-01    5.758864e+00
  8.877440e-01    5.752432e+00
  9.105268e-01    5.791783e+00
  9.333096e-01    5.585641e+00
  9.560924e-01    5.356637e+00
  9.788752e-01    4.917483e+00
  1.001658e+00    5.099111e+00
  1.024441e+00    4.445652e+00
  1.047224e+00    3.856665e+00
  1.070006e+00    3.731161e+00
  1.092789e+00    3.628678e+00
  1.115572e+00    3.437472e+00
  1.138355e+00    3.945975e+00
  1.161138e+00    3.280006e+00
  1.183920e+00    2.704027e+00
  1.206703e+00    2.660029e+00
  1.229486e+00    2.543067e+00
  1.252269e+00    2.808134e+00
  1.275052e+00    3.232953e+00
  1.297834e+00    2.970376e+00
  1.320617e+00    2.024527e+00
  1.343400e+00    2.865581e+00
  1.366183e+00    3.166306e+00
  1.388966e+00    2.095429e+00
  1.411748e+00    2.295259e+00
  1.434531e+00    1.854895e+00
  1.457314e+00    1.406680e+00
  1.480097e+00    2.689310e+00
  1.502879e+00    1.163337e+00
  1.525662e+00    1.067754e+00
  1.548445e+00    1.469433e+00
  1.571228e+00    2.125582e+00
  1.594011e+00    1.723241e+00
  1.616793e+00    1.212797e+00
  1.639576e+00    2.603749e+00
  1.662359e+00    4.937832e+00
  1.685142e+00    5.828551e+00
  1.707925e+00    1.193590e+01
  1.730707e+00    2.257964e+01
  1.753490e+00    3.885534e+01
  1.776273e+00    5.195789e+01
  1.799056e+00    5.062205e+01
  1.821839e+00    3.607050e+01
  1.844621e+00    2.088977e+01
  1.867404e+00    1.155299e+01
  1.890187e+00    4.144843e+00
  1.912970e+00    8.318396e-01
  1.935753e+00    8.896307e-01
  1.958535e+00    1.387753e+00
  1.981318e+00    1.949024e+00
  2.004101e+00    2.583500e+00
  2.026884e+00    3.092392e+00
  2.049667e+00    1.312129e+00
  2.072449e+00    4.295526e-01
  2.095232e+00    8.457209e-01
  2.118015e+00    1.565146e+00
  2.140798e+00    2.383469e+00
  2.163581e+00    1.269019e+00
  2.186363e+00    9.477437e-01
  2.209146e+00    5.925293e-01
  2.231929e+00    1.309397e+00
  2.254712e+00    1.189633e+00
  2.277494e+00    2.212982e-01
  2.300277e+00    2.212982e-01
  2.323060e+00    4.621942e-01
  2.345843e+00    5.446657e-01
  2.368626e+00    5.762923e-01
  2.391408e+00    0.000000e+00
  2.414191e+00    0.000000e+00
  2.436974e+00    8.509827e-01
  2.459757e+00    1.019209e+00
  2.482540e+00    2.124559e+00
  2.505322e+00    1.951600e+00
  2.528105e+00    1.724792e+00
  2.550888e+00    1.759013e+00
  2.573671e+00    2.235793e+00
  2.596454e+00    2.584876e+00
  2.619236e+00    2.048697e+00
  2.642019e+00    1.678146e+00
  2.664802e+00    1.771064e+00
  2.687585e+00    2.029469e+00
  2.710368e+00    1.598170e+00
  2.733150e+00    8.023536e-01
  2.755933e+00    1.361933e+00
  2.778716e+00    1.355844e+00
  2.801499e+00    8.613967e-01
  2.824282e+00    6.607116e-01
  2.847064e+00    8.481519e-01
  2.869847e+00    1.761452e+00
  2.892630e+00    1.995481e+00
  2.915413e+00    1.433844e+00
  2.938196e+00    1.446166e+00
  2.960978e+00    7.735521e-01
  2.983761e+00    3.916692e-01
  3.006544e+00    7.743351e-01
  3.029327e+00    1.186236e+00
  3.052110e+00    1.566274e+00
  3.074892e+00    8.059996e-01
  3.097675e+00    6.164137e-01
  3.120458e+00    2.009583e-02
  3.143241e+00    3.181577e-01
  3.166023e+00    3.000951e-01
  3.188806e+00    1.802679e-01
  3.211589e+00    2.114665e+00
  3.234372e+00    1.716751e+00
  3.257155e+00    3.294749e+00
  3.279937e+00    5.116358e+00
  3.302720e+00    6.385275e+00
  3.325503e+00    6.200028e+00
  3.348286e+00    4.842854e+00
  3.371069e+00    3.444358e+00
  3.393851e+00    1.518963e+00
  3.416634e+00    1.056466e+00
  3.439417e+00    1.608500e+00
  3.462200e+00    1.961087e+00
  3.484983e+00    1.988312e+00
  3.507765e+00    0.000000e+00
  3.530548e+00    0.000000e+00
  3.553331e+00    6.408772e-01
  3.576114e+00    6.397928e-01
  3.598897e+00    1.693181e+00
  3.621679e+00    1.980140e+00
  3.644462e+00    2.883257e+00
  3.667245e+00    5.227803e+00
  3.690028e+00    7.064924e+00
  3.712811e+00    9.053031e+00
  3.735593e+00    9.227331e+00
  3.758376e+00    7.840412e+00
  3.781159e+00    6.018432e+00
  3.803942e+00    4.018269e+00
  3.826725e+00    2.271996e+00
  3.849507e+00    1.329885e+00
  3.872290e+00    9.924278e-01
  3.895073e+00    6.072812e-01
  3.917856e+00    6.184618e-01
  3.940638e+00    1.155529e+00
  3.963421e+00    1.488604e+00
  3.986204e+00    6.883274e-01
  4.008987e+00    1.242791e+00
  4.031770e+00    2.722602e+00
  4.054552e+00    1.462263e+00
  4.077335e+00    7.698634e-01
  4.100118e+00    4.584606e-01
  4.122901e+00    1.214499e-01
  4.145684e+00    3.183388e-01
  4.168466e+00    4.430587e-01
  4.191249e+00    8.714184e-01
  4.214032e+00    7.734269e-01
  4.236815e+00    8.133047e-01
  4.259598e+00    7.043936e-01
  4.282380e+00    8.256917e-01
  4.305163e+00    2.265381e+00
  4.327946e+00    2.265381e+00
  4.350729e+00    0.000000e+00
  4.373512e+00    0.000000e+00
  4.396294e+00    5.085754e-02
  4.419077e+00    1.228233e+00
  4.441860e+00    3.382965e+00
  4.464643e+00    1.303330e+00
  4.487426e+00    9.374903e-01
  4.510208e+00    1.081603e+00
  4.532991e+00    1.873519e+00
  4.555774e+00    1.857642e+00
  4.578557e+00    9.902027e-01
  4.601340e+00    6.646796e-01
  4.624122e+00    1.508706e+00
  4.646905e+00    2.283142e+00
  4.669688e+00    1.973035e+00
  4.692471e+00    1.927271e+00
  4.715253e+00    2.340991e+00
  4.738036e+00    2.386434e+00
  4.760819e+00    1.440494e-01
  4.783602e+00    1.418839e-01
  4.806385e+00    1.783352e+00
  4.829167e+00    2.229406e+00
  4.851950e+00    8.514229e-01
  4.874733e+00    9.468678e-01
  4.897516e+00    1.019906e+00
  4.920299e+00    1.276257e+00
  4.943081e+00    1.791268e+00
  4.965864e+00    2.107710e+00
  4.988647e+00    1.055140e+00
  5.011430e+00    1.125929e+00
  5.034213e+00    1.246866e+00
  5.056995e+00    7.323350e-01
  5.079778e+00    6.416381e-01
  5.102561e+00    3.681220e-01
  5.125344e+00    9.961712e-01
  5.148127e+00    8.222697e-01
  5.170909e+00    2.517771e-02
  5.193692e+00    7.536630e-01
  5.216475e+00    1.177506e+00
  5.239258e+00    1.437224e+00
  5.262041e+00    4.679965e-01
  5.284823e+00    5.525081e-01
  5.307606e+00    1.295830e+00
  5.330389e+00    7.872756e-01
  5.353172e+00    6.454013e-01
  5.375955e+00    3.301249e-01
  5.398737e+00    8.274369e-01
  5.421520e+00    9.339710e-01
  5.444303e+00    9.417785e-01
  5.467086e+00    4.215467e-01
  5.489869e+00    2.516281e-01
  5.512651e+00    3.844604e-01
  5.535434e+00    1.047642e+00
  5.558217e+00    9.964482e-01
  5.581000e+00    4.403458e-01
  5.603782e+00    1.170409e+00
  5.626565e+00    1.079071e+00
  5.649348e+00    9.951821e-01
  5.672131e+00    1.532428e+00
  5.694914e+00    1.234939e+00
  5.717696e+00    5.846310e-01
  5.740479e+00    1.860682e+00
  5.763262e+00    3.036991e+00
  5.786045e+00    1.100575e+00
  5.808828e+00    2.186761e-01
  5.831610e+00    5.614057e-01
  5.854393e+00    5.497372e-01
  5.877176e+00    8.865818e-01
  5.899959e+00    7.920480e-01
  5.922742e+00    5.257915e-01
  5.945524e+00    9.228854e-01
  5.968307e+00    9.367296e-01
  5.991090e+00    0.000000e+00
  6.013873e+00    5.159149e-01
  6.036656e+00    4.400789e-01
  6.059438e+00    2.920837e-01
  6.082221e+00    1.608884e+00
  6.105004e+00    1.421296e+00
  6.127787e+00    7.678866e-01
  6.150570e+00    1.571509e+00
  6.173352e+00    1.569315e+00
  6.196135e+00    1.376702e+00
  6.218918e+00    1.018772e+00
  6.241701e+00    8.997444e-01
  6.264484e+00    6.493655e-01
  6.287266e+00    7.344295e-01
  6.310049e+00    7.542281e-01
  6.332832e+00    7.245572e-01
  6.355615e+00    8.175029e-01
  6.378397e+00    7.515191e-01
  6.401180e+00    3.802697e-01
  6.423963e+00    1.252195e+00
  6.446746e+00    1.412458e+00
  6.469529e+00    1.604029e+00
  6.492311e+00    1.585499e+00
  6.515094e+00    1.403673e+00
  6.537877e+00    1.067178e+00
  6.560660e+00    1.044513e+00
  6.583443e+00    1.010009e+00
  6.606225e+00    0.000000e+00
  6.629008e+00    1.516213e+00
  6.651791e+00    1.411043e+00
  6.674574e+00    1.321580e+00
  6.697357e+00    1.047252e+00
  6.720139e+00    1.085290e+00
  6.742922e+00    1.117105e+00
  6.765705e+00    1.158791e+00
  6.788488e+00    1.183221e+00
  6.811271e+00    0.000000e+00
  6.834053e+00    6.057090e-01
  6.856836e+00    6.360851e-01
  6.879619e+00    6.178275e-01
  6.902402e+00    6.730532e-01
  6.925185e+00    8.073930e-01
  6.947967e+00    1.241051e+00
  6.970750e+00    1.356590e+00
  6.993533e+00    9.989473e-01
  7.016316e+00    8.172259e-01
  7.039099e+00    1.623651e+00
  7.061881e+00    1.689172e+00
  7.084664e+00    1.398613e+00
  7.107447e+00    1.506194e+00
  7.130230e+00    8.029411e-01
  7.153013e+00    5.545586e-01
  7.175795e+00    8.358674e-01
  7.198578e+00    1.141643e+00
  7.221361e+00    1.195488e+00
  7.244144e+00    1.053274e+00
  7.266926e+00    8.523458e-01
  7.289709e+00    8.703572e-01
  7.312492e+00    1.286749e+00
  7.335275e+00    1.247992e+00
  7.358058e+00    6.799383e-01
  7.380840e+00    1.185833e+00
  7.403623e+00    1.262854e+00
  7.426406e+00    1.225833e+00
  7.449189e+00    1.290851e+00
  7.471972e+00    1.083616e+00
  7.494754e+00    1.247499e+00
  7.517537e+00    1.715485e+00
  7.540320e+00    1.780142e+00
  7.563103e+00    1.794487e+00
  7.585886e+00    1.918838e+00
  7.608668e+00    1.222216e+00
  7.631451e+00    9.867173e-01
  7.654234e+00    6.970327e-01
  7.677017e+00    7.600336e-01
  7.699800e+00    1.150732e+00
  7.722582e+00    1.704714e+00
  7.745365e+00    1.553194e+00
  7.768148e+00    1.501445e+00
  7.790931e+00    1.437285e+00
  7.813714e+00    1.133860e+00
  7.836496e+00    1.217638e+00
  7.859279e+00    1.280963e+00
  7.882062e+00    9.371831e-01
  7.904845e+00    9.349918e-01
  7.927628e+00    6.329544e-01
  7.950410e+00    6.430587e-01
  7.973193e+00    1.020704e+00
  7.995976e+00    1.266311e+00
  8.018759e+00    1.479371e+00
  8.041541e+00    1.378486e+01
  8.064324e+00    2.518133e+01
  8.087107e+00    2.660426e+00
  8.109890e+00    1.075862e+00
  8.132673e+00    1.218191e+00
  8.155455e+00    1.378981e+00
  8.178238e+00    1.890262e+00
  8.201021e+00    1.439810e+00
  8.223804e+00    1.138722e+00
  8.246587e+00    1.205254e+01
  8.269369e+00    1.769864e+01
  8.292152e+00    1.300288e+00
  8.314935e+00    5.552510e-01
  8.337718e+00    1.066960e+00
  8.360501e+00    1.281799e+00
  8.383283e+00    1.310601e+00
  8.406066e+00    1.556538e+00
  8.428849e+00    1.515288e+00
  8.451632e+00    1.148133e+00
  8.474415e+00    1.433343e+00
  8.497197e+00    1.282445e+00
  8.519980e+00    1.573631e+00
  8.542763e+00    1.141439e+00
  8.565546e+00    8.747245e-01
  8.588329e+00    5.310273e-01
  8.611111e+00    3.095660e+00
  8.633894e+00    2.541969e+00
  8.656677e+00    1.314705e+00
  8.679460e+00    1.416794e+00
  8.702243e+00    1.138871e+00
  8.725025e+00    9.507510e-01
  8.747808e+00    2.260414e+00
  8.770591e+00    1.268260e+00
  8.793374e+00    1.207398e+00
  8.816156e+00    1.610854e+00
  8.838939e+00    1.319515e+00
  8.861722e+00    1.465834e+00
  8.884505e+00    3.926010e-01
  8.907288e+00    1.738373e+00
  8.930070e+00    1.481295e+00
  8.952853e+00    1.111392e+00
  8.975636e+00    1.434291e+00
  8.998419e+00    1.241840e+00
  9.021202e+00    6.767570e-01
  9.043984e+00    1.510945e+00
  9.066767e+00    1.597462e+00
  9.089550e+00    1.614370e+00
  9.112333e+00    1.437875e+00
  9.135116e+00    1.885504e+00
  9.157898e+00    2.241258e+00
  9.180681e+00    1.587151e+00
  9.203464e+00    1.592866e+00
  9.226247e+00    1.581573e+00
  9.249030e+00    1.536500e+00
  9.271812e+00    7.639382e-01
  9.294595e+00    8.843322e-01
  9.317378e+00    1.082988e+00
  9.340161e+00    4.431696e-01
  9.362944e+00    7.790526e-01
  9.385726e+00    1.154710e+00
  9.408509e+00    1.407615e+00
  9.431292e+00    5.244483e-01
  9.454075e+00    3.940069e-01
  9.476858e+00    1.108995e+00
  9.499640e+00    7.915598e-01
  9.522423e+00    9.394105e-01
  9.545206e+00    2.024930e+00
  9.567989e+00    7.717690e-01
  9.590772e+00    9.515332e-01
  9.613554e+00    2.216725e+01
  9.636337e+00    3.609930e+01
  9.659120e+00    1.545787e+00
  9.681903e+00    1.709548e+00
  9.704685e+00    1.477455e+00
  9.727468e+00    5.034404e-01
  9.750251e+00    4.875328e-01
  9.773034e+00    5.475450e-01
  9.795817e+00    7.602009e-01
  9.818599e+00    8.966811e-01
  9.841382e+00    1.094108e+00
  9.864165e+00    8.584390e-01
  9.886948e+00    1.345603e+00
  9.909731e+00    1.550256e+00
  9.932513e+00    1.097413e+00
  9.955296e+00    1.020932e+00
  9.978079e+00    1.078777e+00
  1.000086e+01    8.513412e-01
  1.002364e+01    1.256303e+00
  1.004643e+01    1.442879e+00
  1.006921e+01    1.381177e+00
  1.009199e+01    1.559000e+00
  1.011478e+01    1.138153e+00
  1.013756e+01    8.675339e-01
  1.016034e+01    1.012390e+00
  1.018312e+01    9.699736e-01
  1.020591e+01    1.139266e+00
  1.022869e+01    1.090970e+00
  1.025147e+01    7.697933e-01
  1.027426e+01    1.108172e+00
  1.029704e+01    1.337644e+00
  1.031982e+01    1.300012e+00
  1.034260e+01    1.093433e+00
  1.036539e+01    1.388806e+00
  1.038817e+01    6.695086e-01
  1.041095e+01    1.154407e+00
  1.043373e+01    1.201172e+00
  1.045652e+01    1.141741e+00
  1.047930e+01    8.666019e-01
  1.050208e+01    1.140210e+00
  1.052487e+01    1.553834e+00
  1.054765e+01    1.927571e+00
  1.057043e+01    1.187163e+00
  1.059321e+01    8.249831e-01
  1.061600e+01    8.217443e-01
  1.063878e+01    1.007493e+00
  1.066156e+01    1.016413e+00
  1.068435e+01    9.543616e-01
  1.070713e+01    1.025504e+00
  1.072991e+01    1.130666e+00
  1.075269e+01    1.168716e+00
  1.077548e+01    1.035162e+00
  1.079826e+01    1.363876e+00
  1.082104e+01    1.104027e+00
  1.084383e+01    1.027568e+00
  1.086661e+01    8.919717e-01
  1.088939e+01    1.209981e+00
  1.091217e+01    1.469818e+00
  1.093496e+01    7.852215e-01
  1.095774e+01    9.970596e-01
  1.098052e+01    1.136038e+00
  1.100330e+01    9.115019e-01
  1.102609e+01    6.978558e-01
  1.104887e+01    1.003196e+00
  1.107165e+01    8.994649e-01
  1.109444e+01    9.957359e-01
  1.111722e+01    1.553930e+00
  1.114000e+01    7.839918e-01
  1.116278e+01    5.504161e-01
  1.118557e+01    9.311932e-01
  1.120835e+01    7.305568e-01
  1.123113e+01    6.074011e-01
  1.125392e+01    1.146298e+00
  1.127670e+01    1.436291e+00
  1.129948e+01    9.620102e-01
  1.132226e+01    9.301018e-01
  1.134505e+01    9.155582e-01
  1.136783e+01    7.926280e-01
  1.139061e+01    9.021575e-01
  1.141340e+01    1.720908e+00
  1.143618e+01    9.106809e-01
  1.145896e+01    1.455444e+00
  1.148174e+01    1.159162e+00
  1.150453e+01    1.349636e+00
  1.152731e+01    1.836324e+00
  1.155009e+01    1.326002e+00
  1.157287e+01    1.269644e+00
  1.159566e+01    1.830419e+00
  1.161844e+01    1.933021e+00
  1.164122e+01    1.661063e+00
  1.166401e+01    1.301626e+00
  1.168679e+01    1.005313e+00
  1.170957e+01    9.106365e-01
  1.173235e+01    1.141170e+00
  1.175514e+01    1.476095e+00
  1.177792e+01    1.584695e+00
  1.180070e+01    1.045465e+00
  1.182349e+01    1.035555e+00
  1.184627e+01    1.380180e+00
  1.186905e+01    1.521084e+00
  1.189183e+01    1.223888e+00
  1.191462e+01    9.797536e-01
  1.193740e+01    9.447521e-01
  1.196018e+01    9.225585e-01
  1.198296e+01    1.225487e+00
  1.200575e+01    1.763656e+00
  1.202853e+01    2.125761e+00
  1.205131e+01    1.748141e+00
  1.207410e+01    1.169605e+00
  1.209688e+01    1.115268e+00
  1.211966e+01    1.137040e+00
  1.214244e+01    1.376770e+00
  1.216523e+01    1.627442e+00
  1.218801e+01    1.125631e+00
  1.221079e+01    1.183472e+00
  1.223358e+01    1.435258e+00
  1.225636e+01    1.279110e+00
  1.227914e+01    1.006181e+00
  1.230192e+01    8.667507e-01
  1.232471e+01    6.816744e-01
  1.234749e+01    7.847002e-01
  1.237027e+01    7.060264e-01
  1.239306e+01    5.218071e-01
  1.241584e+01    8.560087e-01
  1.243862e+01    1.316107e+00
  1.246140e+01    1.010428e+00
  1.248419e+01    1.199576e+00
  1.250697e+01    1.317179e+00
  1.252975e+01    1.732479e+00
  1.255253e+01    1.743655e+00
  1.257532e+01    1.803426e+00
  1.259810e+01    1.532467e+00
  1.262088e+01    1.326352e+00
  1.264367e+01    1.201037e+00
  1.266645e+01    2.080142e+00
  1.268923e+01    1.282519e+00
  1.271201e+01    1.372696e+00
  1.273480e+01    1.199610e+00
  1.275758e+01    1.121946e+00
  1.278036e+01    2.328255e+00
  1.280315e+01    2.031437e+00
  1.282593e+01    1.684256e+00
  1.284871e+01    1.465611e+00
  1.287149e+01    1.609840e+00
  1.289428e+01    1.179131e+00
  1.291706e+01    9.012393e-01
  1.293984e+01    8.926963e-01
  1.296263e+01    1.021936e+00
  1.298541e+01    7.551686e-01
  1.300819e+01    9.747232e-01
  1.303097e+01    1.031217e+00
  1.305376e+01    1.008975e+00
  1.307654e+01    7.993112e-01
  1.309932e+01    9.819894e-01
  1.312210e+01    1.224744e+00
  1.314489e+01    1.470500e+00
  1.316767e+01    1.671389e+00
  1.319045e+01    2.646201e+00
  1.321324e+01    2.495169e+00
  1.323602e+01    7.980424e-01
  1.325880e+01    1.011052e+00
  1.328158e+01    1.004537e+00
  1.330437e+01    8.928251e-01
  1.332715e+01    1.384054e+00
  1.334993e+01    2.129452e+00
  1.337272e+01    2.047027e+00
  1.339550e+01    1.531958e+00
  1.341828e+01    1.131832e+00
  1.344106e+01    1.190742e+00
  1.346385e+01    1.137522e+00
  1.348663e+01    1.454963e+00
  1.350941e+01    1.241172e+00
  1.353219e+01    9.239255e-01
  1.355498e+01    1.148410e+00
  1.357776e+01    1.049748e+00
  1.360054e+01    1.905196e+00
  1.362333e+01    1.329369e+00
  1.364611e+01    1.041844e+00
  1.366889e+01    1.481292e+00
  1.369167e+01    1.732613e+00
  1.371446e+01    1.160851e+00
  1.373724e+01    1.238491e+00
  1.376002e+01    1.483855e+00
  1.378281e+01    1.451081e+00
  1.380559e+01    1.606578e+00
  1.382837e+01    1.404763e+00
  1.385115e+01    1.361743e+00
  1.387394e+01    1.402770e+00
  1.389672e+01    1.114362e+00
  1.391950e+01    1.195399e+00
  1.394229e+01    1.538519e+00
  1.396507e+01    1.425529e+00
  1.398785e+01    1.428317e+00
  1.401063e+01    1.178735e+00
  1.403342e+01    1.029284e+00
  1.405620e+01    1.362100e+00
  1.407898e+01    1.807245e+00
  1.410176e+01    1.628425e+00
  1.412455e+01    1.232497e+00
  1.414733e+01    1.463862e+00
  1.417011e+01    9.786752e-01
  1.419290e+01    9.149208e-01
  1.421568e+01    1.426736e+00
  1.423846e+01    1.437975e+00
  1.426124e+01    1.414305e+00
  1.428403e+01    1.246751e+00
  1.430681e+01    1.270240e+00
  1.432959e+01    1.186525e+00
  1.435238e+01    1.106420e+00
  1.437516e+01    1.422575e+00
  1.439794e+01    1.298025e+00
  1.442072e+01    1.126835e+00
  1.444351e+01    1.035299e+00
  1.446629e+01    9.458973e-01
  1.448907e+01    1.383164e+00
  1.451186e+01    1.156661e+00
  1.453464e+01    1.280342e+00
  1.455742e+01    1.535657e+00
  1.458020e+01    1.489894e+00
  1.460299e+01    1.036767e+00
  1.462577e+01    1.042017e+00
  1.464855e+01    1.191782e+00
  1.467133e+01    1.331857e+00
  1.469412e+01    1.234973e+00
  1.471690e+01    1.100689e+00
  1.473968e+01    1.566575e+00
  1.476247e+01    1.585784e+00
  1.478525e+01    1.318236e+00
  1.480803e+01    1.186359e+00
  1.483081e+01    1.224268e+00
  1.485360e+01    1.266704e+00
  1.487638e+01    1.485383e+00
  1.489916e+01    1.534342e+00
  1.492195e+01    1.174498e+00
  1.494473e+01    1.119297e+00
  1.496751e+01    1.309659e+00
  1.499029e+01    1.444182e+00
  1.501308e+01    1.389365e+00
  1.503586e+01    1.105686e+00
  1.505864e+01    1.024920e+00
  1.508142e+01    1.016161e+00
  1.510421e+01    1.052364e+00
  1.512699e+01    1.108541e+00
  1.514977e+01    1.000721e+00
  1.517256e+01    8.438567e-01
  1.519534e+01    1.128497e+00
  1.521812e+01    1.220397e+00
  1.524090e+01    1.081046e+00
  1.526369e+01    1.379591e+00
  1.528647e+01    1.208927e+00
  1.530925e+01    1.179663e+00
  1.533204e+01    1.179410e+00
  1.535482e+01    1.255088e+00
  1.537760e+01    1.275293e+00
  1.540038e+01    1.139861e+00
  1.542317e+01    1.234659e+00
  1.544595e+01    1.156943e+00
  1.546873e+01    1.109635e+00
  1.549152e+01    1.083487e+00
  1.551430e+01    1.241870e+00
  1.553708e+01    1.536061e+00
  1.555986e+01    1.447189e+00
  1.558265e+01    1.047975e+00
  1.560543e+01    1.217693e+00
  1.562821e+01    1.544867e+00
  1.565099e+01    1.254308e+00
  1.567378e+01    1.209855e+00
  1.569656e+01    1.048988e+00
  1.571934e+01    1.186539e+00
  1.574213e+01    1.140990e+00
  1.576491e+01    1.139480e+00
  1.578769e+01    1.207568e+00
  1.581047e+01    1.124620e+00
  1.583326e+01    1.401600e+00
  1.585604e+01    1.161937e+00
  1.587882e+01    1.295536e+00
  1.590161e+01    9.317169e-01
  1.592439e+01    1.098123e+00
  1.594717e+01    1.171861e+00
  1.596995e+01    1.054280e+00
  1.599274e+01    1.249526e+00
  1.601552e+01    1.263993e+00
  1.603830e+01    1.427545e+00
  1.606109e+01    1.153652e+00
  1.608387e+01    1.226670e+00
  1.610665e+01    1.422881e+00
  1.612943e+01    1.408786e+00
  1.615222e+01    1.252472e+00
  1.617500e+01    1.182024e+00
  1.619778e+01    1.013376e+00
  1.622056e+01    1.180501e+00
  1.624335e+01    1.148024e+00
  1.626613e+01    1.344836e+00
  1.628891e+01    1.144302e+00
  1.631170e+01    1.067511e+00
  1.633448e+01    9.281092e-01
  1.635726e+01    9.839059e-01
  1.638004e+01    1.139791e+00
  1.640283e+01    1.050899e+00
  1.642561e+01    1.164221e+00
  1.644839e+01    1.190117e+00
  1.647118e+01    1.148905e+00
  1.649396e+01    1.317859e+00
  1.651674e+01    1.291717e+00
  1.653952e+01    1.393725e+00
  1.656231e+01    1.412662e+00
  1.658509e+01    1.423370e+00
  1.660787e+01    1.288105e+00
  1.663065e+01    1.278179e+00
  1.665344e+01    1.236605e+00
  1.667622e+01    1.074975e+00
  1.669900e+01    1.041883e+00
  1.672179e+01    1.413495e+00
  1.674457e+01    1.173811e+00
  1.676735e+01    1.385906e+00
  1.679013e+01    1.256358e+00
  1.681292e+01    1.224685e+00
  1.683570e+01    1.175798e+00
  1.685848e+01    1.152733e+00
  1.688127e+01    1.076569e+00
  1.690405e+01    1.240978e+00
  1.692683e+01    1.266240e+00
  1.694961e+01    1.464925e+00
  1.697240e+01    1.421824e+00
  1.699518e+01    1.250408e+00
  1.701796e+01    1.037385e+00
  1.704075e+01    1.417749e+00
  1.706353e+01    1.182579e+00
  1.708631e+01    1.255062e+00
  1.710909e+01    1.284076e+00
  1.713188e+01    1.089178e+00
  1.715466e+01    1.110016e+00
  1.717744e+01    1.249360e+00
  1.720022e+01    1.187424e+00
  1.722301e+01    1.096762e+00
  1.724579e+01    1.318530e+00
  1.726857e+01    1.341061e+00
  1.729136e+01    1.334820e+00
  1.731414e+01    1.337684e+00
  1.733692e+01    1.252357e+00
  1.735970e+01    1.259092e+00
  1.738249e+01    1.264470e+00
  1.740527e+01    1.076920e+00
  1.742805e+01    1.018988e+00
  1.745084e+01    1.389668e+00
  1.747362e+01    1.375406e+00
  1.749640e+01    1.308704e+00
  1.751918e+01    1.240965e+00
  1.754197e+01    1.299790e+00
  1.756475e+01    1.253796e+00
  1.758753e+01    1.450348e+00
  1.761032e+01    1.416045e+00
  1.763310e+01    1.212625e+00
  1.765588e+01    1.417250e+00
  1.767866e+01    1.263360e+00
  1.770145e+01    1.114725e+00
  1.772423e+01    1.263910e+00
  1.774701e+01    1.289556e+00
  1.776979e+01    1.020706e+00
  1.779258e+01    9.824979e-01
  1.781536e+01    1.022037e+00
  1.783814e+01    1.229057e+00
  1.786093e+01    1.147224e+00
  1.788371e+01    1.236365e+00
  1.790649e+01    1.097193e+00
  1.792927e+01    1.502252e+00
  1.795206e+01    1.435032e+00
  1.797484e+01    1.178200e+00
  1.799762e+01    1.114339e+00
  1.802041e+01    1.169199e+00
  1.804319e+01    1.273060e+00
  1.806597e+01    1.292234e+00
  1.808875e+01    1.295257e+00
  1.811154e+01    1.272045e+00
  1.813432e+01    1.197281e+00
  1.815710e+01    1.332765e+00
  1.817989e+01    1.247029e+00
  1.820267e+01    1.044063e+00
  1.822545e+01    1.271458e+00
  1.824823e+01    1.272907e+00
  1.827102e+01    1.102768e+00
  1.829380e+01    9.043215e-01
  1.831658e+01    9.475236e-01
  1.833936e+01    1.264227e+00
  1.836215e+01    1.140507e+00
  1.838493e+01    1.091987e+00
  1.840771e+01    1.194473e+00
  1.843050e+01    1.078707e+00
  1.845328e+01    1.028008e+00
  1.847606e+01    1.124794e+00
  1.849884e+01    1.127877e+00
  1.852163e+01    1.008803e+00
  1.854441e+01    1.362812e+00
  1.856719e+01    1.347800e+00
  1.858998e+01    1.092801e+00
  1.861276e+01    1.042339e+00
  1.863554e+01    1.219667e+00
  1.865832e+01    1.342035e+00
  1.868111e+01    1.237505e+00
  1.870389e+01    1.105443e+00
  1.872667e+01    1.132530e+00
  1.874945e+01    1.007946e+00
  1.877224e+01    1.219837e+00
  1.879502e+01    1.150955e+00
  1.881780e+01    1.068347e+00
  1.884059e+01    1.094266e+00
  1.886337e+01    1.214675e+00
  1.888615e+01    1.049145e+00
  1.890893e+01    1.020280e+00
  1.893172e+01    1.281787e+00
  1.895450e+01    1.269862e+00
  1.897728e+01    1.272938e+00
  1.900007e+01    1.163865e+00
  1.902285e+01    1.109221e+00
  1.904563e+01    1.267370e+00
  1.906841e+01    1.346036e+00
  1.909120e+01    1.463153e+00
  1.911398e+01    1.345529e+00
  1.913676e+01    9.980353e-01
  1.915955e+01    1.149623e+00
  1.918233e+01    1.266182e+00
  1.920511e+01    1.133025e+00
  1.922789e+01    1.023699e+00
  1.925068e+01    1.192386e+00
  1.927346e+01    1.075906e+00
  1.929624e+01    1.156805e+00
  1.931902e+01    1.296424e+00
  1.934181e+01    1.155119e+00
  1.936459e+01    1.087201e+00
  1.938737e+01    1.135626e+00
  1.941016e+01    1.151641e+00
  1.943294e+01    9.898468e-01
  1.945572e+01    1.068109e+00
  1.947850e+01    1.042314e+00
  1.950129e+01    1.184262e+00
  1.952407e+01    1.159119e+00
  1.954685e+01    1.092021e+00
  1.956964e+01    1.224850e+00
  1.959242e+01    1.352627e+00
  1.961520e+01    1.123634e+00
  1.963798e+01    1.281626e+00
  1.966077e+01    1.216731e+00
  1.968355e+01    1.292830e+00
  1.970633e+01    1.159991e+00
  1.972912e+01    1.243851e+00
  1.975190e+01    1.264850e+00
  1.977468e+01    1.143400e+00
  1.979746e+01    1.220529e+00
  1.982025e+01    1.191167e+00
  1.984303e+01    9.652424e-01
  1.986581e+01    1.082590e+00
  1.988859e+01    1.061368e+00
  1.991138e+01    1.140975e+00
  1.993416e+01    1.048146e+00
  1.995694e+01    1.070880e+00
  1.997973e+01    1.032788e+00
  2.000251e+01    1.087916e+00
  2.002529e+01    9.862705e-01
  2.004807e+01    1.042272e+00
  2.007086e+01    1.292800e+00
  2.009364e+01    1.060733e+00
  2.011642e+01    9.039515e-01
  2.013921e+01    1.123475e+00
  2.016199e+01    1.025225e+00
  2.018477e+01    1.108226e+00
  2.020755e+01    1.051449e+00
  2.023034e+01    1.115397e+00
  2.025312e+01    1.117034e+00
  2.027590e+01    9.513060e-01
  2.029868e+01    1.097623e+00
  2.032147e+01    1.085945e+00
  2.034425e+01    1.139357e+00
  2.036703e+01    1.181338e+00
  2.038982e+01    1.194040e+00
  2.041260e+01    1.077533e+00
  2.043538e+01    1.228797e+00
  2.045816e+01    1.170851e+00
  2.048095e+01    1.080279e+00
  2.050373e+01    1.024447e+00
  2.052651e+01    1.039937e+00
  2.054930e+01    8.234643e-01
  2.057208e+01    1.059385e+00
  2.059486e+01    1.296310e+00
  2.061764e+01    1.256077e+00
  2.064043e+01    1.091789e+00
  2.066321e+01    1.068830e+00
  2.068599e+01    9.529199e-01
  2.070878e+01    1.201876e+00
  2.073156e+01    1.137349e+00
  2.075434e+01    1.122899e+00
  2.077712e+01    1.075733e+00
  2.079991e+01    1.189125e+00
  2.082269e+01    1.269858e+00
  2.084547e+01    9.468953e-01
  2.086825e+01    9.787569e-01
  2.089104e+01    1.172355e+00
  2.091382e+01    1.150144e+00
  2.093660e+01    1.219162e+00
  2.095939e+01    1.011649e+00
  2.098217e+01    1.020375e+00
  2.100495e+01    9.398476e-01
  2.102773e+01    1.100613e+00
  2.105052e+01    1.234795e+00
  2.107330e+01    1.269191e+00
  2.109608e+01    1.038231e+00
  2.111887e+01    1.027019e+00
  2.114165e+01    1.005449e+00
  2.116443e+01    9.813566e-01
  2.118721e+01    1.106843e+00
  2.121000e+01    1.284410e+00
  2.123278e+01    1.041611e+00
  2.125556e+01    1.052813e+00
  2.127835e+01    1.098630e+00
  2.130113e+01    1.147528e+00
  2.132391e+01    9.951410e-01
  2.134669e+01    1.315291e+00
  2.136948e+01    1.212434e+00
  2.139226e+01    1.096898e+00
  2.141504e+01    1.144307e+00
  2.143782e+01    9.818854e-01
  2.146061e+01    1.119763e+00
  2.148339e+01    1.150000e+00
  2.150617e+01    9.425943e-01
  2.152896e+01    1.039585e+00
  2.155174e+01    1.149023e+00
  2.157452e+01    1.216797e+00
  2.159730e+01    1.090385e+00
  2.162009e+01    1.084032e+00
  2.164287e+01    1.111181e+00
  2.166565e+01    9.766076e-01
  2.168844e+01    1.060194e+00
  2.171122e+01    1.144013e+00
  2.173400e+01    1.122892e+00
  2.175678e+01    1.090520e+00
  2.177957e+01    1.038394e+00
  2.180235e+01    1.129052e+00
  2.182513e+01    1.172404e+00
  2.184791e+01    9.835516e-01
  2.187070e+01    9.042845e-01
  2.189348e+01    1.113668e+00
  2.191626e+01    1.094313e+00
  2.193905e+01    1.089849e+00
  2.196183e+01    1.040584e+00
  2.198461e+01    1.106459e+00
  2.200739e+01    1.016491e+00
  2.203018e+01    1.142496e+00
  2.205296e+01    1.071432e+00
  2.207574e+01    1.116752e+00
  2.209853e+01    1.029200e+00
  2.212131e+01    1.208519e+00
  2.214409e+01    1.278208e+00
  2.216687e+01    1.036941e+00
  2.218966e+01    1.061412e+00
  2.221244e+01    1.068593e+00
  2.223522e+01    1.012870e+00
  2.225801e+01    1.130023e+00
  2.228079e+01    1.083335e+00
  2.230357e+01    1.168967e+00
  2.232635e+01    1.019880e+00
  2.234914e+01    1.075915e+00
  2.237192e+01    1.168779e+00
  2.239470e+01    1.089043e+00
  2.241748e+01    1.111418e+00
  2.244027e+01    9.349974e-01
  2.246305e+01    9.870550e-01
  2.248583e+01    9.986907e-01
  2.250862e+01    1.134443e+00
  2.253140e+01    1.080223e+00
  2.255418e+01    1.020998e+00
  2.257696e+01    1.085174e+00
  2.259975e+01    1.108041e+00
  2.262253e+01    1.171519e+00
  2.264531e+01    1.077500e+00
  2.266810e+01    1.031880e+00
  2.269088e+01    1.107858e+00
  2.271366e+01    1.136257e+00
  2.273644e+01    1.072136e+00
  2.275923e+01    1.056155e+00
  2.278201e+01    1.097613e+00
  2.280479e+01    1.048876e+00
  2.282758e+01    9.344515e-01
  2.285036e+01    9.923695e-01
  2.287314e+01    1.036902e+00
  2.289592e+01    9.383559e-01
  2.291871e+01    1.065230e+00
  2.294149e+01    9.957670e-01
  2.296427e+01    9.904259e-01
  2.298705e+01    1.127967e+00
  2.300984e+01    1.127214e+00
  2.303262e+01    1.192545e+00
  2.305540e+01    1.022047e+00
  2.307819e+01    1.002691e+00
  2.310097e+01    1.071873e+00
  2.312375e+01    1.044361e+00
  2.314653e+01    1.032525e+00
  2.316932e+01    1.042344e+00
  2.319210e+01    1.045113e+00
  2.321488e+01    1.062828e+00
  2.323767e+01    1.057554e+00
  2.326045e+01    1.108868e+00
  2.328323e+01    1.128602e+00
  2.330601e+01    9.607878e-01
  2.332880e+01    1.088508e+00
  2.335158e+01    1.104182e+00
  2.337436e+01    1.040593e+00
  2.339714e+01    1.085396e+00
  2.341993e+01    1.018977e+00
  2.344271e+01    9.098717e-01
  2.346549e+01    9.923082e-01
  2.348828e+01    1.056414e+00
  2.351106e+01    1.074048e+00
  2.353384e+01    1.076418e+00
  2.355662e+01    1.008926e+00
  2.357941e+01    1.035726e+00
  2.360219e+01    1.098127e+00
  2.362497e+01    1.157089e+00
  2.364776e+01    1.137806e+00
  2.367054e+01    1.081894e+00
  2.369332e+01    1.027828e+00
  2.371610e+01    9.743611e-01
  2.373889e+01    9.617848e-01
  2.376167e+01    9.970382e-01
  2.378445e+01    1.034718e+00
  2.380724e+01    1.053968e+00
  2.383002e+01    1.166650e+00
  2.385280e+01    1.196943e+00
  2.387558e+01    1.145692e+00
  2.389837e+01    1.106287e+00
  2.392115e+01    1.007950e+00
  2.394393e+01    1.056632e+00
  2.396671e+01    1.051824e+00
  2.398950e+01    1.010002e+00
  2.401228e+01    1.019454e+00
  2.403506e+01    1.033938e+00
  2.405785e+01    1.035029e+00
  2.408063e+01    1.016470e+00
  2.410341e+01    1.117413e+00
  2.412619e+01    1.152014e+00
  2.414898e+01    1.196596e+00
  2.417176e+01    1.086267e+00
  2.419454e+01    1.123602e+00
  2.421733e+01    1.103156e+00
  2.424011e+01    1.055831e+00
  2.426289e+01    1.055254e+00
  2.428567e+01    1.044342e+00
  2.430846e+01    1.122954e+00
  2.433124e+01    9.560127e-01
  2.435402e+01    1.007480e+00
  2.437681e+01    1.126294e+00
  2.439959e+01    1.069335e+00
  2.442237e+01    1.064498e+00
  2.444515e+01    1.085146e+00
  2.446794e+01    1.097253e+00
  2.449072e+01    9.882337e-01
  2.451350e+01    1.116167e+00
  2.453628e+01    1.124235e+00
  2.455907e+01    1.135242e+00
  2.458185e+01    9.678580e-01
  2.460463e+01    1.086381e+00
  2.462742e+01    1.014783e+00
  2.465020e+01    1.081822e+00
  2.467298e+01    1.109853e+00
  2.469576e+01    1.072523e+00
  2.471855e+01    1.071181e+00
  2.474133e+01    1.000178e+00
  2.476411e+01    1.069623e+00
  2.478690e+01    1.058617e+00
  2.480968e+01    1.065552e+00
  2.483246e+01    1.116581e+00
  2.485524e+01    1.146023e+00
  2.487803e+01    1.067147e+00
  2.490081e+01    1.104073e+00
  2.492359e+01    1.126463e+00
  2.494637e+01    1.086403e+00
  2.496916e+01    1.120119e+00
  2.499194e+01    1.100796e+00
  2.501472e+01    1.120022e+00
  2.503751e+01    1.163105e+00
  2.506029e+01    1.062514e+00
  2.508307e+01    1.035245e+00
  2.510585e+01    1.018389e+00
  2.512864e+01    1.035425e+00
  2.515142e+01    1.123855e+00
  2.517420e+01    1.026307e+00
  2.519699e+01    1.097531e+00
  2.521977e+01    1.087823e+00
  2.524255e+01    1.061037e+00
  2.526533e+01    1.080834e+00
  2.528812e+01    1.140594e+00
  2.531090e+01    1.162185e+00
  2.533368e+01    1.130213e+00
  2.535647e+01    1.007252e+00
  2.537925e+01    1.063268e+00
  2.540203e+01    1.066368e+00
  2.542481e+01    1.087961e+00
  2.544760e+01    1.041693e+00
  2.547038e+01    1.070745e+00
  2.549316e+01    1.085995e+00
  2.551594e+01    1.038595e+00
  2.553873e+01    1.097191e+00
  2.556151e+01    1.043042e+00
  2.558429e+01    1.140952e+00
  2.560708e+01    1.064449e+00
  2.562986e+01    1.104447e+00
  2.565264e+01    1.086763e+00
  2.567542e+01    1.078556e+00
  2.569821e+01    1.134521e+00
  2.572099e+01    1.016500e+00
  2.574377e+01    1.052443e+00
  2.576656e+01    1.124755e+00
  2.578934e+01    1.026853e+00
  2.581212e+01    1.082423e+00
  2.583490e+01    1.035857e+00
  2.585769e+01    1.073144e+00
  2.588047e+01    1.053463e+00
  2.590325e+01    1.004338e+00
  2.592604e+01    1.144195e+00
  2.594882e+01    1.150573e+00
  2.597160e+01    1.135547e+00
  2.599438e+01    1.058930e+00
  2.601717e+01    1.097192e+00
  2.603995e+01    1.114757e+00
  2.606273e+01    1.074470e+00
  2.608551e+01    1.079913e+00
  2.610830e+01    1.081363e+00
  2.613108e+01    1.145639e+00
  2.615386e+01    1.129922e+00
  2.617665e+01    1.151597e+00
  2.619943e+01    1.117877e+00
  2.622221e+01    1.145975e+00
  2.624499e+01    1.107577e+00
  2.626778e+01    1.072721e+00
  2.629056e+01    1.058653e+00
  2.631334e+01    1.083694e+00
  2.633613e+01    1.082624e+00
  2.635891e+01    1.044629e+00
  2.638169e+01    1.105901e+00
  2.640447e+01    1.049626e+00
  2.642726e+01    1.106195e+00
  2.645004e+01    1.091177e+00
  2.647282e+01    1.039132e+00
  2.649560e+01    1.069499e+00
  2.651839e+01    1.112019e+00
  2.654117e+01    1.137216e+00
  2.656395e+01    1.083228e+00
  2.658674e+01    1.066348e+00
  2.660952e+01    1.117085e+00
  2.663230e+01    1.141047e+00
  2.665508e+01    1.099053e+00
  2.667787e+01    1.039611e+00
  2.670065e+01    1.058797e+00
  2.672343e+01    1.125278e+00
  2.674622e+01    1.164411e+00
  2.676900e+01    1.115795e+00
  2.679178e+01    1.137964e+00
  2.681456e+01    1.056730e+00
  2.683735e+01    1.093474e+00
  2.686013e+01    1.053571e+00
  2.688291e+01    1.043949e+00
  2.690570e+01    1.024884e+00
  2.692848e+01    1.091407e+00
  2.695126e+01    1.102190e+00
  2.697404e+01    1.095934e+00
  2.699683e+01    1.088731e+00
  2.701961e+01    1.118482e+00
  2.704239e+01    1.081801e+00
  2.706517e+01    1.125706e+00
  2.708796e+01    1.057423e+00
  2.711074e+01    1.061141e+00
  2.713352e+01    1.045749e+00
  2.715631e+01    1.074591e+00
  2.717909e+01    1.104310e+00
  2.720187e+01    1.128600e+00
  2.722465e+01    1.114357e+00
  2.724744e+01    1.123655e+00
  2.727022e+01    1.121065e+00
  2.729300e+01    1.027164e+00
  2.731579e+01    1.127568e+00
  2.733857e+01    1.172637e+00
  2.736135e+01    1.133146e+00
  2.738413e+01    1.160073e+00
  2.740692e+01    1.146791e+00
  2.742970e+01    1.158093e+00
  2.745248e+01    1.105075e+00
  2.747527e+01    1.126201e+00
  2.749805e+01    1.111539e+00
  2.752083e+01    1.176736e+00
  2.754361e+01    1.103729e+00
  2.756640e+01    1.159792e+00
  2.758918e+01    1.177993e+00
  2.761196e+01    1.200348e+00
  2.763474e+01    1.152853e+00
  2.765753e+01    1.151343e+00
  2.768031e+01    1.161672e+00
  2.770309e+01    1.161107e+00
  2.772588e+01    1.238439e+00
  2.774866e+01    1.284999e+00
  2.777144e+01    1.198656e+00
  2.779422e+01    1.224265e+00
  2.781701e+01    1.154124e+00
  2.783979e+01    1.183154e+00
  2.786257e+01    1.188428e+00
  2.788536e+01    1.204051e+00
  2.790814e+01    1.148039e+00
  2.793092e+01    1.182968e+00
  2.795370e+01    1.232287e+00
  2.797649e+01    1.250918e+00
  2.799927e+01    1.196406e+00
  2.802205e+01    1.178229e+00
  2.804483e+01    1.202571e+00
  2.806762e+01    1.227213e+00
  2.809040e+01    1.184666e+00
  2.811318e+01    1.219796e+00
  2.813597e+01    1.309464e+00
  2.815875e+01    1.171441e+00
  2.818153e+01    1.179595e+00
  2.820431e+01    1.146101e+00
  2.822710e+01    1.272925e+00
  2.824988e+01    1.274130e+00
  2.827266e+01    1.228510e+00
  2.829545e+01    1.287789e+00
  2.831823e+01    1.264471e+00
  2.834101e+01    1.267910e+00
  2.836379e+01    1.217368e+00
  2.838658e+01    1.228955e+00
  2.840936e+01    1.254254e+00
  2.843214e+01    1.218526e+00
  2.845493e+01    1.192001e+00
  2.847771e+01    1.211161e+00
  2.850049e+01    1.188808e+00
  2.852327e+01    1.237688e+00
  2.854606e+01    1.358912e+00
  2.856884e+01    1.215302e+00
  2.859162e+01    1.282928e+00
  2.861440e+01    1.248105e+00
  2.863719e+01    1.179199e+00
  2.865997e+01    1.243350e+00
  2.868275e+01    1.242829e+00
  2.870554e+01    1.247322e+00
  2.872832e+01    1.241477e+00
  2.875110e+01    1.247636e+00
  2.877388e+01    1.251813e+00
  2.879667e+01    1.268642e+00
  2.881945e+01    1.238812e+00
  2.884223e+01    1.245428e+00
  2.886502e+01    1.289555e+00
  2.888780e+01    1.214481e+00
  2.891058e+01    1.214139e+00
  2.893336e+01    1.324288e+00
  2.895615e+01    1.288352e+00
  2.897893e+01    1.236032e+00
  2.900171e+01    1.274233e+00
  2.902450e+01    1.241021e+00
  2.904728e+01    1.176268e+00
  2.907006e+01    1.269493e+00
  2.909284e+01    1.295429e+00
  2.911563e+01    1.239685e+00
  2.913841e+01    1.193964e+00
  2.916119e+01    1.293210e+00
  2.918397e+01    1.367538e+00
  2.920676e+01    1.286559e+00
  2.922954e+01    1.288447e+00
  2.925232e+01    1.256474e+00
  2.927511e+01    1.233478e+00
  2.929789e+01    1.146909e+00
  2.932067e+01    1.269156e+00
  2.934345e+01    1.202783e+00
  2.936624e+01    1.224652e+00
  2.938902e+01    1.220356e+00
  2.941180e+01    1.287585e+00
  2.943459e+01    1.264892e+00
  2.945737e+01    1.232514e+00
  2.948015e+01    1.277345e+00
  2.950293e+01    1.336836e+00
  2.952572e+01    1.268301e+00
  2.954850e+01    1.272751e+00
  2.957128e+01    1.235257e+00
  2.959407e+01    1.240871e+00
  2.961685e+01    1.236437e+00
  2.963963e+01    1.241342e+00
  2.966241e+01    1.286093e+00
  2.968520e+01    1.169917e+00
  2.970798e+01    1.174326e+00
  2.973076e+01    1.116964e+00
  2.975354e+01    1.162877e+00
  2.977633e+01    1.218687e+00
  2.979911e+01    1.238467e+00
  2.982189e+01    1.206750e+00
  2.984468e+01    1.212080e+00
  2.986746e+01    1.180240e+00
  2.989024e+01    1.154742e+00
  2.991302e+01    1.096393e+00
  2.993581e+01    1.172438e+00
  2.995859e+01    1.185470e+00
  2.998137e+01    1.246147e+00
  3.000416e+01    1.187399e+00
  3.002694e+01    1.200475e+00
  3.004972e+01    1.180709e+00
  3.007250e+01    1.223170e+00
  3.009529e+01    1.197131e+00
  3.011807e+01    1.136032e+00
  3.014085e+01    1.189826e+00
  3.016363e+01    1.103378e+00
  3.018642e+01    1.116057e+00
  3.020920e+01    1.207203e+00
  3.023198e+01    1.137767e+00
  3.025477e+01    1.101411e+00
  3.027755e+01    1.197174e+00
  3.030033e+01    1.129403e+00
  3.032311e+01    1.162111e+00
  3.034590e+01    1.149458e+00
  3.036868e+01    1.096196e+00
  3.039146e+01    1.203962e+00
  3.041425e+01    1.157864e+00
  3.043703e+01    1.118980e+00
  3.045981e+01    1.152097e+00
  3.048259e+01    1.142084e+00
  3.050538e+01    1.092817e+00
  3.052816e+01    1.174161e+00
  3.055094e+01    1.162436e+00
  3.057373e+01    1.181626e+00
  3.059651e+01    1.081703e+00
  3.061929e+01    1.027404e+00
  3.064207e+01    1.046997e+00
  3.066486e+01    1.132150e+00
  3.068764e+01    1.180545e+00
  3.071042e+01    1.080169e+00
  3.073320e+01    1.021507e+00
  3.075599e+01    1.127997e+00
  3.077877e+01    1.040249e+00
  3.080155e+01    1.130340e+00
  3.082434e+01    1.171122e+00
  3.084712e+01    1.069714e+00
  3.086990e+01    1.056208e+00
  3.089268e+01    1.082170e+00
  3.091547e+01    1.081276e+00
  3.093825e+01    1.115780e+00
  3.096103e+01    1.066529e+00
  3.098382e+01    1.087846e+00
  3.100660e+01    1.029012e+00
  3.102938e+01    1.097577e+00
  3.105216e+01    1.023538e+00
  3.107495e+01    1.067285e+00
  3.109773e+01    1.094030e+00
  3.112051e+01    1.090913e+00
  3.114330e+01    1.196262e+00
  3.116608e+01    1.118855e+00
  3.118886e+01    1.119557e+00
  3.121164e+01    1.125342e+00
  3.123443e+01    1.048446e+00
  3.125721e+01    1.071447e+00
  3.127999e+01    1.130375e+00
  3.130277e+01    1.217746e+00
  3.132556e+01    1.127912e+00
  3.134834e+01    1.084328e+00
  3.137112e+01    1.137219e+00
  3.139391e+01    1.117353e+00
  3.141669e+01    1.107195e+00
  3.143947e+01    1.115302e+00
  3.146225e+01    1.148696e+00
  3.148504e+01    1.141183e+00
  3.150782e+01    1.149895e+00
  3.153060e+01    1.132491e+00
  3.155339e+01    1.189504e+00
  3.157617e+01    1.075525e+00
  3.159895e+01    1.060222e+00
  3.162173e+01    1.046635e+00
  3.164452e+01    1.032640e+00
  3.166730e+01    1.133429e+00
  3.169008e+01    1.191390e+00
  3.171286e+01    1.151663e+00
  3.173565e+01    1.196584e+00
  3.175843e+01    1.162452e+00
  3.178121e+01    1.071239e+00
  3.180400e+01    1.167336e+00
  3.182678e+01    1.209686e+00
  3.184956e+01    1.131148e+00
  3.187234e+01    1.158723e+00
  3.189513e+01    1.142500e+00
  3.191791e+01    1.100736e+00
  3.194069e+01    1.055629e+00
  3.196348e+01    1.051872e+00
  3.198626e+01    1.079963e+00
  3.200904e+01    1.207137e+00
  3.203182e+01    1.140778e+00
  3.205461e+01    1.132895e+00
  3.207739e+01    1.158678e+00
  3.210017e+01    1.082267e+00
  3.212296e+01    1.076052e+00
  3.214574e+01    1.114429e+00
  3.216852e+01    1.116436e+00
  3.219130e+01    1.089317e+00
  3.221409e+01    1.215770e+00
  3.223687e+01    1.215293e+00
  3.225965e+01    1.163805e+00
  3.228243e+01    1.121603e+00
  3.230522e+01    1.209825e+00
  3.232800e+01    1.066650e+00
  3.235078e+01    1.006795e+00
  3.237357e+01    1.028888e+00
  3.239635e+01    1.084728e+00
  3.241913e+01    1.141436e+00
  3.244191e+01    1.185403e+00
  3.246470e+01    1.160759e+00
  3.248748e+01    1.171467e+00
  3.251026e+01    1.186389e+00
  3.253305e+01    1.230118e+00
  3.255583e+01    1.166464e+00
  3.257861e+01    1.092527e+00
  3.260139e+01    1.194331e+00
  3.262418e+01    1.098085e+00
  3.264696e+01    1.272417e+00
  3.266974e+01    1.193059e+00
  3.269253e+01    1.065889e+00
  3.271531e+01    1.102776e+00
  3.273809e+01    1.223920e+00
  3.276087e+01    1.194241e+00
  3.278366e+01    1.245152e+00
  3.280644e+01    1.086216e+00
  3.282922e+01    1.220397e+00
  3.285200e+01    1.066054e+00
  3.287479e+01    1.154110e+00
  3.289757e+01    1.127182e+00
  3.292035e+01    1.164737e+00
  3.294314e+01    1.277606e+00
  3.296592e+01    1.141435e+00
  3.298870e+01    1.050248e+00
  3.301148e+01    1.247991e+00
  3.303427e+01    1.130614e+00
  3.305705e+01    1.281186e+00
  3.307983e+01    1.279144e+00
  3.310262e+01    1.181200e+00
  3.312540e+01    1.171820e+00
  3.314818e+01    1.108618e+00
  3.317096e+01    1.179476e+00
  3.319375e+01    1.312776e+00
  3.321653e+01    1.313843e+00
  3.323931e+01    1.284263e+00
  3.326209e+01    1.459875e+00
  3.328488e+01    1.247689e+00
  3.330766e+01    1.438306e+00
  3.333044e+01    1.183357e+00
  3.335323e+01    1.560303e+00
  3.337601e+01    1.309723e+00
  3.339879e+01    1.152754e+00
  3.342157e+01    1.102822e+00
  3.344436e+01    1.327743e+00
  3.346714e+01    2.063128e+00
  3.348992e+01    0.000000e+00
  3.351271e+01    0.000000e+00
  3.353549e+01    0.000000e+00
  3.355827e+01    0.000000e+00
  3.358105e+01    0.000000e+00
  3.360384e+01    0.000000e+00
  3.362662e+01    0.000000e+00
  3.364940e+01    0.000000e+00
  3.367219e+01    0.000000e+00
  3.369497e+01    0.000000e+00
  3.371775e+01    0.000000e+00
