# == pyFAI calibration ==
# Distance Sample to Detector: 0.21311058206280517 m
# PONI: 2.037e-01, 1.993e-01 m
# Rotations: -0.005459 0.000134 0.000000 rad
# 
# == Fit2d calibration ==
# Distance Sample-beamCenter: 213.114 mm
# Center: x=1002.134, y=1018.730 pix
# Tilt: 0.313 deg  TiltPlanRot: 1.411 deg
# 
# Detector Perkin detector	 PixelSize= 2.000e-04, 2.000e-04 m
#    Detector has a mask: False 
#    Detector has a dark current: False 
#    detector has a flat field: False 
# 
# Wavelength: 1.675e-11 m
# Mask applied: provided
# Dark current applied: False
# Flat field applied: False
# Polarization factor: None
# Normalization factor: 1.0
# --> data/chi_bkgsub_false/C_Tatania5-27.5-average.chi
#        q_A^-1             I 
  2.199784e-02    1.254797e+02
  4.478064e-02    1.261581e+02
  6.756343e-02    1.264787e+02
  9.034623e-02    1.270782e+02
  1.131290e-01    1.295704e+02
  1.359118e-01    1.311328e+02
  1.586946e-01    1.338660e+02
  1.814774e-01    1.384644e+02
  2.042602e-01    1.446708e+02
  2.270430e-01    1.560318e+02
  2.498258e-01    1.765939e+02
  2.726086e-01    2.129434e+02
  2.953914e-01    4.063979e+02
  3.181742e-01    6.458284e+02
  3.409570e-01    1.038883e+03
  3.637398e-01    1.464283e+03
  3.865226e-01    1.188892e+03
  4.093054e-01    8.823892e+02
  4.320881e-01    7.106569e+02
  4.548709e-01    6.337608e+02
  4.776537e-01    6.817582e+02
  5.004365e-01    7.284220e+02
  5.232193e-01    7.649445e+02
  5.460021e-01    8.130596e+02
  5.687849e-01    8.806878e+02
  5.915677e-01    9.598822e+02
  6.143505e-01    1.041701e+03
  6.371333e-01    1.160057e+03
  6.599161e-01    1.276410e+03
  6.826989e-01    1.394379e+03
  7.054817e-01    1.500223e+03
  7.282645e-01    1.584345e+03
  7.510473e-01    1.649784e+03
  7.738301e-01    1.697100e+03
  7.966129e-01    1.740013e+03
  8.193956e-01    1.784138e+03
  8.421784e-01    1.827924e+03
  8.649612e-01    1.875205e+03
  8.877440e-01    1.926521e+03
  9.105268e-01    1.978045e+03
  9.333096e-01    2.034854e+03
  9.560924e-01    2.096923e+03
  9.788752e-01    2.160649e+03
  1.001658e+00    2.230599e+03
  1.024441e+00    2.304194e+03
  1.047224e+00    2.381865e+03
  1.070006e+00    2.467299e+03
  1.092789e+00    2.557127e+03
  1.115572e+00    2.651562e+03
  1.138355e+00    2.755414e+03
  1.161138e+00    2.863365e+03
  1.183920e+00    2.977659e+03
  1.206703e+00    3.100940e+03
  1.229486e+00    3.226121e+03
  1.252269e+00    3.360978e+03
  1.275052e+00    3.504933e+03
  1.297834e+00    3.642268e+03
  1.320617e+00    3.791083e+03
  1.343400e+00    3.946100e+03
  1.366183e+00    4.098890e+03
  1.388966e+00    4.257041e+03
  1.411748e+00    4.414005e+03
  1.434531e+00    4.568872e+03
  1.457314e+00    4.722454e+03
  1.480097e+00    4.860915e+03
  1.502879e+00    4.994376e+03
  1.525662e+00    5.121338e+03
  1.548445e+00    5.233030e+03
  1.571228e+00    5.331707e+03
  1.594011e+00    5.417013e+03
  1.616793e+00    5.490408e+03
  1.639576e+00    5.542472e+03
  1.662359e+00    5.578729e+03
  1.685142e+00    5.610073e+03
  1.707925e+00    5.626213e+03
  1.730707e+00    5.633366e+03
  1.753490e+00    5.635125e+03
  1.776273e+00    5.621362e+03
  1.799056e+00    5.584635e+03
  1.821839e+00    5.521167e+03
  1.844621e+00    5.449380e+03
  1.867404e+00    5.382041e+03
  1.890187e+00    5.307127e+03
  1.912970e+00    5.238805e+03
  1.935753e+00    5.178041e+03
  1.958535e+00    5.118668e+03
  1.981318e+00    5.059162e+03
  2.004101e+00    5.001228e+03
  2.026884e+00    4.946771e+03
  2.049667e+00    4.888293e+03
  2.072449e+00    4.822463e+03
  2.095232e+00    4.760427e+03
  2.118015e+00    4.695943e+03
  2.140798e+00    4.632468e+03
  2.163581e+00    4.555031e+03
  2.186363e+00    4.469676e+03
  2.209146e+00    4.386195e+03
  2.231929e+00    4.294729e+03
  2.254712e+00    4.199697e+03
  2.277494e+00    4.106205e+03
  2.300277e+00    4.008194e+03
  2.323060e+00    3.907042e+03
  2.345843e+00    3.808032e+03
  2.368626e+00    3.707184e+03
  2.391408e+00    3.608350e+03
  2.414191e+00    3.508404e+03
  2.436974e+00    3.412190e+03
  2.459757e+00    3.323158e+03
  2.482540e+00    3.233766e+03
  2.505322e+00    3.143875e+03
  2.528105e+00    3.058442e+03
  2.550888e+00    2.980304e+03
  2.573671e+00    2.909204e+03
  2.596454e+00    2.846519e+03
  2.619236e+00    2.794476e+03
  2.642019e+00    2.747739e+03
  2.664802e+00    2.702164e+03
  2.687585e+00    2.664171e+03
  2.710368e+00    2.634220e+03
  2.733150e+00    2.616223e+03
  2.755933e+00    2.604237e+03
  2.778716e+00    2.600033e+03
  2.801499e+00    2.604234e+03
  2.824282e+00    2.609551e+03
  2.847064e+00    2.616070e+03
  2.869847e+00    2.623908e+03
  2.892630e+00    2.631954e+03
  2.915413e+00    2.636667e+03
  2.938196e+00    2.639141e+03
  2.960978e+00    2.638616e+03
  2.983761e+00    2.636045e+03
  3.006544e+00    2.631735e+03
  3.029327e+00    2.625748e+03
  3.052110e+00    2.617919e+03
  3.074892e+00    2.606308e+03
  3.097675e+00    2.592837e+03
  3.120458e+00    2.579303e+03
  3.143241e+00    2.565927e+03
  3.166023e+00    2.552539e+03
  3.188806e+00    2.539277e+03
  3.211589e+00    2.526839e+03
  3.234372e+00    2.516130e+03
  3.257155e+00    2.506639e+03
  3.279937e+00    2.499429e+03
  3.302720e+00    2.490869e+03
  3.325503e+00    2.479609e+03
  3.348286e+00    2.465551e+03
  3.371069e+00    2.449906e+03
  3.393851e+00    2.436438e+03
  3.416634e+00    2.425667e+03
  3.439417e+00    2.417560e+03
  3.462200e+00    2.415314e+03
  3.484983e+00    2.416638e+03
  3.507765e+00    2.415939e+03
  3.530548e+00    2.416092e+03
  3.553331e+00    2.416019e+03
  3.576114e+00    2.417357e+03
  3.598897e+00    2.421116e+03
  3.621679e+00    2.428971e+03
  3.644462e+00    2.442763e+03
  3.667245e+00    2.455734e+03
  3.690028e+00    2.467846e+03
  3.712811e+00    2.479521e+03
  3.735593e+00    2.490283e+03
  3.758376e+00    2.499349e+03
  3.781159e+00    2.506402e+03
  3.803942e+00    2.513243e+03
  3.826725e+00    2.519789e+03
  3.849507e+00    2.526204e+03
  3.872290e+00    2.534518e+03
  3.895073e+00    2.547570e+03
  3.917856e+00    2.558042e+03
  3.940638e+00    2.564508e+03
  3.963421e+00    2.574655e+03
  3.986204e+00    2.585749e+03
  4.008987e+00    2.595658e+03
  4.031770e+00    2.604711e+03
  4.054552e+00    2.615964e+03
  4.077335e+00    2.630465e+03
  4.100118e+00    2.636372e+03
  4.122901e+00    2.644297e+03
  4.145684e+00    2.652279e+03
  4.168466e+00    2.658740e+03
  4.191249e+00    2.664053e+03
  4.214032e+00    2.669239e+03
  4.236815e+00    2.675582e+03
  4.259598e+00    2.675221e+03
  4.282380e+00    2.666126e+03
  4.305163e+00    2.659653e+03
  4.327946e+00    2.652293e+03
  4.350729e+00    2.644215e+03
  4.373512e+00    2.635791e+03
  4.396294e+00    2.627147e+03
  4.419077e+00    2.617046e+03
  4.441860e+00    2.604510e+03
  4.464643e+00    2.593738e+03
  4.487426e+00    2.589315e+03
  4.510208e+00    2.573950e+03
  4.532991e+00    2.555197e+03
  4.555774e+00    2.541070e+03
  4.578557e+00    2.526738e+03
  4.601340e+00    2.511286e+03
  4.624122e+00    2.494755e+03
  4.646905e+00    2.480910e+03
  4.669688e+00    2.468924e+03
  4.692471e+00    2.444067e+03
  4.715253e+00    2.424375e+03
  4.738036e+00    2.406470e+03
  4.760819e+00    2.388777e+03
  4.783602e+00    2.371133e+03
  4.806385e+00    2.354738e+03
  4.829167e+00    2.345032e+03
  4.851950e+00    2.329425e+03
  4.874733e+00    2.311608e+03
  4.897516e+00    2.300597e+03
  4.920299e+00    2.290951e+03
  4.943081e+00    2.282158e+03
  4.965864e+00    2.272208e+03
  4.988647e+00    2.261930e+03
  5.011430e+00    2.251344e+03
  5.034213e+00    2.232762e+03
  5.056995e+00    2.219058e+03
  5.079778e+00    2.211648e+03
  5.102561e+00    2.194523e+03
  5.125344e+00    2.179249e+03
  5.148127e+00    2.166588e+03
  5.170909e+00    2.153831e+03
  5.193692e+00    2.139721e+03
  5.216475e+00    2.125832e+03
  5.239258e+00    2.114557e+03
  5.262041e+00    2.100826e+03
  5.284823e+00    2.080487e+03
  5.307606e+00    2.063945e+03
  5.330389e+00    2.048016e+03
  5.353172e+00    2.031148e+03
  5.375955e+00    2.012633e+03
  5.398737e+00    1.993367e+03
  5.421520e+00    1.975773e+03
  5.444303e+00    1.950311e+03
  5.467086e+00    1.925494e+03
  5.489869e+00    1.902964e+03
  5.512651e+00    1.881160e+03
  5.535434e+00    1.860067e+03
  5.558217e+00    1.840207e+03
  5.581000e+00    1.822966e+03
  5.603782e+00    1.804078e+03
  5.626565e+00    1.782256e+03
  5.649348e+00    1.765124e+03
  5.672131e+00    1.749117e+03
  5.694914e+00    1.729348e+03
  5.717696e+00    1.712946e+03
  5.740479e+00    1.698582e+03
  5.763262e+00    1.685063e+03
  5.786045e+00    1.672285e+03
  5.808828e+00    1.661128e+03
  5.831610e+00    1.652901e+03
  5.854393e+00    1.640433e+03
  5.877176e+00    1.628156e+03
  5.899959e+00    1.618563e+03
  5.922742e+00    1.610192e+03
  5.945524e+00    1.601939e+03
  5.968307e+00    1.594304e+03
  5.991090e+00    1.588944e+03
  6.013873e+00    1.582514e+03
  6.036656e+00    1.571875e+03
  6.059438e+00    1.565300e+03
  6.082221e+00    1.559650e+03
  6.105004e+00    1.549311e+03
  6.127787e+00    1.541547e+03
  6.150570e+00    1.535390e+03
  6.173352e+00    1.530469e+03
  6.196135e+00    1.522632e+03
  6.218918e+00    1.515080e+03
  6.241701e+00    1.509551e+03
  6.264484e+00    1.501740e+03
  6.287266e+00    1.493712e+03
  6.310049e+00    1.486604e+03
  6.332832e+00    1.479666e+03
  6.355615e+00    1.472198e+03
  6.378397e+00    1.464883e+03
  6.401180e+00    1.458812e+03
  6.423963e+00    1.452717e+03
  6.446746e+00    1.444174e+03
  6.469529e+00    1.436990e+03
  6.492311e+00    1.430206e+03
  6.515094e+00    1.423276e+03
  6.537877e+00    1.416384e+03
  6.560660e+00    1.409781e+03
  6.583443e+00    1.403751e+03
  6.606225e+00    1.395438e+03
  6.629008e+00    1.387279e+03
  6.651791e+00    1.380445e+03
  6.674574e+00    1.372493e+03
  6.697357e+00    1.364368e+03
  6.720139e+00    1.357355e+03
  6.742922e+00    1.351130e+03
  6.765705e+00    1.344484e+03
  6.788488e+00    1.337715e+03
  6.811271e+00    1.331944e+03
  6.834053e+00    1.326002e+03
  6.856836e+00    1.319048e+03
  6.879619e+00    1.312354e+03
  6.902402e+00    1.305911e+03
  6.925185e+00    1.299523e+03
  6.947967e+00    1.293612e+03
  6.970750e+00    1.288881e+03
  6.993533e+00    1.284917e+03
  7.016316e+00    1.279669e+03
  7.039099e+00    1.274443e+03
  7.061881e+00    1.269348e+03
  7.084664e+00    1.264470e+03
  7.107447e+00    1.260119e+03
  7.130230e+00    1.256046e+03
  7.153013e+00    1.252264e+03
  7.175795e+00    1.248373e+03
  7.198578e+00    1.244699e+03
  7.221361e+00    1.241527e+03
  7.244144e+00    1.239101e+03
  7.266926e+00    1.237087e+03
  7.289709e+00    1.235496e+03
  7.312492e+00    1.234441e+03
  7.335275e+00    1.233805e+03
  7.358058e+00    1.233472e+03
  7.380840e+00    1.233634e+03
  7.403623e+00    1.233675e+03
  7.426406e+00    1.233580e+03
  7.449189e+00    1.233814e+03
  7.471972e+00    1.234528e+03
  7.494754e+00    1.235515e+03
  7.517537e+00    1.236701e+03
  7.540320e+00    1.238345e+03
  7.563103e+00    1.240187e+03
  7.585886e+00    1.242064e+03
  7.608668e+00    1.243679e+03
  7.631451e+00    1.245515e+03
  7.654234e+00    1.247247e+03
  7.677017e+00    1.248672e+03
  7.699800e+00    1.250148e+03
  7.722582e+00    1.251690e+03
  7.745365e+00    1.253093e+03
  7.768148e+00    1.254584e+03
  7.790931e+00    1.256228e+03
  7.813714e+00    1.257747e+03
  7.836496e+00    1.259074e+03
  7.859279e+00    1.260141e+03
  7.882062e+00    1.260713e+03
  7.904845e+00    1.260734e+03
  7.927628e+00    1.259762e+03
  7.950410e+00    1.258788e+03
  7.973193e+00    1.257682e+03
  7.995976e+00    1.256412e+03
  8.018759e+00    1.254984e+03
  8.041541e+00    1.253370e+03
  8.064324e+00    1.251307e+03
  8.087107e+00    1.248750e+03
  8.109890e+00    1.246332e+03
  8.132673e+00    1.244018e+03
  8.155455e+00    1.240991e+03
  8.178238e+00    1.237771e+03
  8.201021e+00    1.234628e+03
  8.223804e+00    1.231405e+03
  8.246587e+00    1.228344e+03
  8.269369e+00    1.225378e+03
  8.292152e+00    1.221991e+03
  8.314935e+00    1.218462e+03
  8.337718e+00    1.214892e+03
  8.360501e+00    1.211418e+03
  8.383283e+00    1.208215e+03
  8.406066e+00    1.205212e+03
  8.428849e+00    1.201900e+03
  8.451632e+00    1.198239e+03
  8.474415e+00    1.194376e+03
  8.497197e+00    1.190275e+03
  8.519980e+00    1.186076e+03
  8.542763e+00    1.182184e+03
  8.565546e+00    1.178719e+03
  8.588329e+00    1.175200e+03
  8.611111e+00    1.171714e+03
  8.633894e+00    1.167920e+03
  8.656677e+00    1.164379e+03
  8.679460e+00    1.160960e+03
  8.702243e+00    1.157403e+03
  8.725025e+00    1.154287e+03
  8.747808e+00    1.151050e+03
  8.770591e+00    1.147975e+03
  8.793374e+00    1.144866e+03
  8.816156e+00    1.141395e+03
  8.838939e+00    1.137900e+03
  8.861722e+00    1.134301e+03
  8.884505e+00    1.131091e+03
  8.907288e+00    1.127748e+03
  8.930070e+00    1.124145e+03
  8.952853e+00    1.120445e+03
  8.975636e+00    1.116592e+03
  8.998419e+00    1.112619e+03
  9.021202e+00    1.108599e+03
  9.043984e+00    1.104794e+03
  9.066767e+00    1.100868e+03
  9.089550e+00    1.096696e+03
  9.112333e+00    1.092577e+03
  9.135116e+00    1.088399e+03
  9.157898e+00    1.083926e+03
  9.180681e+00    1.079283e+03
  9.203464e+00    1.074565e+03
  9.226247e+00    1.070074e+03
  9.249030e+00    1.065472e+03
  9.271812e+00    1.061110e+03
  9.294595e+00    1.056774e+03
  9.317378e+00    1.052371e+03
  9.340161e+00    1.048129e+03
  9.362944e+00    1.043644e+03
  9.385726e+00    1.038914e+03
  9.408509e+00    1.034139e+03
  9.431292e+00    1.029567e+03
  9.454075e+00    1.025024e+03
  9.476858e+00    1.020748e+03
  9.499640e+00    1.016545e+03
  9.522423e+00    1.012170e+03
  9.545206e+00    1.007559e+03
  9.567989e+00    1.003075e+03
  9.590772e+00    9.984978e+02
  9.613554e+00    9.941146e+02
  9.636337e+00    9.899056e+02
  9.659120e+00    9.858896e+02
  9.681903e+00    9.819098e+02
  9.704685e+00    9.779884e+02
  9.727468e+00    9.741832e+02
  9.750251e+00    9.704891e+02
  9.773034e+00    9.671806e+02
  9.795817e+00    9.635884e+02
  9.818599e+00    9.599814e+02
  9.841382e+00    9.564146e+02
  9.864165e+00    9.532009e+02
  9.886948e+00    9.503091e+02
  9.909731e+00    9.473843e+02
  9.932513e+00    9.446292e+02
  9.955296e+00    9.419808e+02
  9.978079e+00    9.395184e+02
  1.000086e+01    9.371641e+02
  1.002364e+01    9.346912e+02
  1.004643e+01    9.324126e+02
  1.006921e+01    9.301065e+02
  1.009199e+01    9.279032e+02
  1.011478e+01    9.258048e+02
  1.013756e+01    9.235609e+02
  1.016034e+01    9.215224e+02
  1.018312e+01    9.195582e+02
  1.020591e+01    9.175228e+02
  1.022869e+01    9.155887e+02
  1.025147e+01    9.137867e+02
  1.027426e+01    9.119987e+02
  1.029704e+01    9.103062e+02
  1.031982e+01    9.087619e+02
  1.034260e+01    9.071923e+02
  1.036539e+01    9.055670e+02
  1.038817e+01    9.040680e+02
  1.041095e+01    9.026129e+02
  1.043373e+01    9.012328e+02
  1.045652e+01    8.998661e+02
  1.047930e+01    8.983596e+02
  1.050208e+01    8.970324e+02
  1.052487e+01    8.956108e+02
  1.054765e+01    8.942950e+02
  1.057043e+01    8.929455e+02
  1.059321e+01    8.916769e+02
  1.061600e+01    8.903224e+02
  1.063878e+01    8.887665e+02
  1.066156e+01    8.872833e+02
  1.068435e+01    8.858234e+02
  1.070713e+01    8.843426e+02
  1.072991e+01    8.827436e+02
  1.075269e+01    8.812141e+02
  1.077548e+01    8.795765e+02
  1.079826e+01    8.778123e+02
  1.082104e+01    8.761151e+02
  1.084383e+01    8.743545e+02
  1.086661e+01    8.724886e+02
  1.088939e+01    8.707678e+02
  1.091217e+01    8.693297e+02
  1.093496e+01    8.678346e+02
  1.095774e+01    8.661379e+02
  1.098052e+01    8.645119e+02
  1.100330e+01    8.629993e+02
  1.102609e+01    8.614536e+02
  1.104887e+01    8.599805e+02
  1.107165e+01    8.585251e+02
  1.109444e+01    8.569747e+02
  1.111722e+01    8.553469e+02
  1.114000e+01    8.537709e+02
  1.116278e+01    8.519691e+02
  1.118557e+01    8.501476e+02
  1.120835e+01    8.484954e+02
  1.123113e+01    8.468794e+02
  1.125392e+01    8.453553e+02
  1.127670e+01    8.439372e+02
  1.129948e+01    8.424205e+02
  1.132226e+01    8.409152e+02
  1.134505e+01    8.394811e+02
  1.136783e+01    8.379758e+02
  1.139061e+01    8.367109e+02
  1.141340e+01    8.354952e+02
  1.143618e+01    8.343018e+02
  1.145896e+01    8.332281e+02
  1.148174e+01    8.321984e+02
  1.150453e+01    8.312648e+02
  1.152731e+01    8.303333e+02
  1.155009e+01    8.294523e+02
  1.157287e+01    8.285631e+02
  1.159566e+01    8.276412e+02
  1.161844e+01    8.267579e+02
  1.164122e+01    8.258569e+02
  1.166401e+01    8.251334e+02
  1.168679e+01    8.244698e+02
  1.170957e+01    8.237009e+02
  1.173235e+01    8.229239e+02
  1.175514e+01    8.223214e+02
  1.177792e+01    8.216649e+02
  1.180070e+01    8.211436e+02
  1.182349e+01    8.205187e+02
  1.184627e+01    8.199317e+02
  1.186905e+01    8.194780e+02
  1.189183e+01    8.190864e+02
  1.191462e+01    8.187346e+02
  1.193740e+01    8.183713e+02
  1.196018e+01    8.181078e+02
  1.198296e+01    8.178503e+02
  1.200575e+01    8.175852e+02
  1.202853e+01    8.173105e+02
  1.205131e+01    8.169628e+02
  1.207410e+01    8.165776e+02
  1.209688e+01    8.162324e+02
  1.211966e+01    8.157540e+02
  1.214244e+01    8.153093e+02
  1.216523e+01    8.149028e+02
  1.218801e+01    8.143073e+02
  1.221079e+01    8.139222e+02
  1.223358e+01    8.133514e+02
  1.225636e+01    8.126542e+02
  1.227914e+01    8.118861e+02
  1.230192e+01    8.111238e+02
  1.232471e+01    8.103527e+02
  1.234749e+01    8.095722e+02
  1.237027e+01    8.087155e+02
  1.239306e+01    8.078158e+02
  1.241584e+01    8.068400e+02
  1.243862e+01    8.058003e+02
  1.246140e+01    8.048372e+02
  1.248419e+01    8.037088e+02
  1.250697e+01    8.025231e+02
  1.252975e+01    8.011637e+02
  1.255253e+01    7.996602e+02
  1.257532e+01    7.982667e+02
  1.259810e+01    7.967469e+02
  1.262088e+01    7.952147e+02
  1.264367e+01    7.936218e+02
  1.266645e+01    7.919977e+02
  1.268923e+01    7.902771e+02
  1.271201e+01    7.884413e+02
  1.273480e+01    7.866058e+02
  1.275758e+01    7.847576e+02
  1.278036e+01    7.830268e+02
  1.280315e+01    7.812659e+02
  1.282593e+01    7.795605e+02
  1.284871e+01    7.778349e+02
  1.287149e+01    7.759709e+02
  1.289428e+01    7.740819e+02
  1.291706e+01    7.721789e+02
  1.293984e+01    7.703176e+02
  1.296263e+01    7.684980e+02
  1.298541e+01    7.665610e+02
  1.300819e+01    7.646818e+02
  1.303097e+01    7.627579e+02
  1.305376e+01    7.607583e+02
  1.307654e+01    7.589092e+02
  1.309932e+01    7.569105e+02
  1.312210e+01    7.551037e+02
  1.314489e+01    7.531306e+02
  1.316767e+01    7.512110e+02
  1.319045e+01    7.494431e+02
  1.321324e+01    7.476021e+02
  1.323602e+01    7.457969e+02
  1.325880e+01    7.440716e+02
  1.328158e+01    7.423254e+02
  1.330437e+01    7.406138e+02
  1.332715e+01    7.389965e+02
  1.334993e+01    7.373367e+02
  1.337272e+01    7.356786e+02
  1.339550e+01    7.340842e+02
  1.341828e+01    7.324059e+02
  1.344106e+01    7.308144e+02
  1.346385e+01    7.293535e+02
  1.348663e+01    7.278188e+02
  1.350941e+01    7.262577e+02
  1.353219e+01    7.246450e+02
  1.355498e+01    7.229496e+02
  1.357776e+01    7.211655e+02
  1.360054e+01    7.195361e+02
  1.362333e+01    7.180024e+02
  1.364611e+01    7.164383e+02
  1.366889e+01    7.149852e+02
  1.369167e+01    7.136428e+02
  1.371446e+01    7.123039e+02
  1.373724e+01    7.109236e+02
  1.376002e+01    7.095455e+02
  1.378281e+01    7.083035e+02
  1.380559e+01    7.070842e+02
  1.382837e+01    7.058364e+02
  1.385115e+01    7.047135e+02
  1.387394e+01    7.035806e+02
  1.389672e+01    7.024561e+02
  1.391950e+01    7.013387e+02
  1.394229e+01    7.002747e+02
  1.396507e+01    6.990470e+02
  1.398785e+01    6.978472e+02
  1.401063e+01    6.966724e+02
  1.403342e+01    6.956455e+02
  1.405620e+01    6.945153e+02
  1.407898e+01    6.934135e+02
  1.410176e+01    6.924417e+02
  1.412455e+01    6.914926e+02
  1.414733e+01    6.905097e+02
  1.417011e+01    6.896251e+02
  1.419290e+01    6.886010e+02
  1.421568e+01    6.876530e+02
  1.423846e+01    6.867773e+02
  1.426124e+01    6.858259e+02
  1.428403e+01    6.848524e+02
  1.430681e+01    6.838619e+02
  1.432959e+01    6.828563e+02
  1.435238e+01    6.819225e+02
  1.437516e+01    6.809937e+02
  1.439794e+01    6.800732e+02
  1.442072e+01    6.791986e+02
  1.444351e+01    6.783481e+02
  1.446629e+01    6.774674e+02
  1.448907e+01    6.766561e+02
  1.451186e+01    6.758740e+02
  1.453464e+01    6.750063e+02
  1.455742e+01    6.742175e+02
  1.458020e+01    6.734232e+02
  1.460299e+01    6.726707e+02
  1.462577e+01    6.719163e+02
  1.464855e+01    6.710535e+02
  1.467133e+01    6.701514e+02
  1.469412e+01    6.693430e+02
  1.471690e+01    6.685454e+02
  1.473968e+01    6.677123e+02
  1.476247e+01    6.669556e+02
  1.478525e+01    6.661519e+02
  1.480803e+01    6.653635e+02
  1.483081e+01    6.645757e+02
  1.485360e+01    6.637728e+02
  1.487638e+01    6.630440e+02
  1.489916e+01    6.623115e+02
  1.492195e+01    6.614955e+02
  1.494473e+01    6.606934e+02
  1.496751e+01    6.599561e+02
  1.499029e+01    6.592011e+02
  1.501308e+01    6.584495e+02
  1.503586e+01    6.579408e+02
  1.505864e+01    6.570239e+02
  1.508142e+01    6.561776e+02
  1.510421e+01    6.553219e+02
  1.512699e+01    6.543724e+02
  1.514977e+01    6.535071e+02
  1.517256e+01    6.527290e+02
  1.519534e+01    6.519436e+02
  1.521812e+01    6.511097e+02
  1.524090e+01    6.502667e+02
  1.526369e+01    6.493918e+02
  1.528647e+01    6.485210e+02
  1.530925e+01    6.477198e+02
  1.533204e+01    6.470118e+02
  1.535482e+01    6.462620e+02
  1.537760e+01    6.454586e+02
  1.540038e+01    6.446419e+02
  1.542317e+01    6.438288e+02
  1.544595e+01    6.429081e+02
  1.546873e+01    6.419514e+02
  1.549152e+01    6.410572e+02
  1.551430e+01    6.402151e+02
  1.553708e+01    6.394114e+02
  1.555986e+01    6.386364e+02
  1.558265e+01    6.378430e+02
  1.560543e+01    6.369306e+02
  1.562821e+01    6.361270e+02
  1.565099e+01    6.353369e+02
  1.567378e+01    6.345304e+02
  1.569656e+01    6.337104e+02
  1.571934e+01    6.328025e+02
  1.574213e+01    6.319829e+02
  1.576491e+01    6.311637e+02
  1.578769e+01    6.303696e+02
  1.581047e+01    6.295104e+02
  1.583326e+01    6.285500e+02
  1.585604e+01    6.276406e+02
  1.587882e+01    6.268030e+02
  1.590161e+01    6.260418e+02
  1.592439e+01    6.252217e+02
  1.594717e+01    6.244706e+02
  1.596995e+01    6.236980e+02
  1.599274e+01    6.229508e+02
  1.601552e+01    6.222222e+02
  1.603830e+01    6.214899e+02
  1.606109e+01    6.206453e+02
  1.608387e+01    6.199542e+02
  1.610665e+01    6.192231e+02
  1.612943e+01    6.185108e+02
  1.615222e+01    6.177827e+02
  1.617500e+01    6.170161e+02
  1.619778e+01    6.163016e+02
  1.622056e+01    6.155372e+02
  1.624335e+01    6.148312e+02
  1.626613e+01    6.141375e+02
  1.628891e+01    6.134512e+02
  1.631170e+01    6.127200e+02
  1.633448e+01    6.119745e+02
  1.635726e+01    6.112667e+02
  1.638004e+01    6.106046e+02
  1.640283e+01    6.098649e+02
  1.642561e+01    6.091624e+02
  1.644839e+01    6.084197e+02
  1.647118e+01    6.076281e+02
  1.649396e+01    6.068895e+02
  1.651674e+01    6.062118e+02
  1.653952e+01    6.054667e+02
  1.656231e+01    6.047299e+02
  1.658509e+01    6.039193e+02
  1.660787e+01    6.031766e+02
  1.663065e+01    6.023936e+02
  1.665344e+01    6.016515e+02
  1.667622e+01    6.008710e+02
  1.669900e+01    6.000698e+02
  1.672179e+01    5.992540e+02
  1.674457e+01    5.984055e+02
  1.676735e+01    5.975870e+02
  1.679013e+01    5.966805e+02
  1.681292e+01    5.957489e+02
  1.683570e+01    5.948644e+02
  1.685848e+01    5.940200e+02
  1.688127e+01    5.931009e+02
  1.690405e+01    5.922040e+02
  1.692683e+01    5.913670e+02
  1.694961e+01    5.904272e+02
  1.697240e+01    5.894235e+02
  1.699518e+01    5.884727e+02
  1.701796e+01    5.875010e+02
  1.704075e+01    5.865141e+02
  1.706353e+01    5.854792e+02
  1.708631e+01    5.845029e+02
  1.710909e+01    5.834752e+02
  1.713188e+01    5.824340e+02
  1.715466e+01    5.813746e+02
  1.717744e+01    5.802731e+02
  1.720022e+01    5.792544e+02
  1.722301e+01    5.782443e+02
  1.724579e+01    5.771564e+02
  1.726857e+01    5.761414e+02
  1.729136e+01    5.751299e+02
  1.731414e+01    5.741351e+02
  1.733692e+01    5.730794e+02
  1.735970e+01    5.720471e+02
  1.738249e+01    5.709630e+02
  1.740527e+01    5.698672e+02
  1.742805e+01    5.687910e+02
  1.745084e+01    5.677333e+02
  1.747362e+01    5.667195e+02
  1.749640e+01    5.656800e+02
  1.751918e+01    5.645979e+02
  1.754197e+01    5.635197e+02
  1.756475e+01    5.624893e+02
  1.758753e+01    5.615031e+02
  1.761032e+01    5.604944e+02
  1.763310e+01    5.595029e+02
  1.765588e+01    5.585072e+02
  1.767866e+01    5.575444e+02
  1.770145e+01    5.565289e+02
  1.772423e+01    5.555206e+02
  1.774701e+01    5.545946e+02
  1.776979e+01    5.536913e+02
  1.779258e+01    5.528448e+02
  1.781536e+01    5.519136e+02
  1.783814e+01    5.509100e+02
  1.786093e+01    5.500129e+02
  1.788371e+01    5.491441e+02
  1.790649e+01    5.482286e+02
  1.792927e+01    5.473543e+02
  1.795206e+01    5.464636e+02
  1.797484e+01    5.455916e+02
  1.799762e+01    5.447724e+02
  1.802041e+01    5.439064e+02
  1.804319e+01    5.430754e+02
  1.806597e+01    5.422661e+02
  1.808875e+01    5.414464e+02
  1.811154e+01    5.406005e+02
  1.813432e+01    5.397092e+02
  1.815710e+01    5.389261e+02
  1.817989e+01    5.381218e+02
  1.820267e+01    5.373411e+02
  1.822545e+01    5.366046e+02
  1.824823e+01    5.357995e+02
  1.827102e+01    5.349553e+02
  1.829380e+01    5.341186e+02
  1.831658e+01    5.333982e+02
  1.833936e+01    5.326920e+02
  1.836215e+01    5.318768e+02
  1.838493e+01    5.310793e+02
  1.840771e+01    5.303408e+02
  1.843050e+01    5.296632e+02
  1.845328e+01    5.289429e+02
  1.847606e+01    5.282388e+02
  1.849884e+01    5.275654e+02
  1.852163e+01    5.268502e+02
  1.854441e+01    5.261629e+02
  1.856719e+01    5.253902e+02
  1.858998e+01    5.247162e+02
  1.861276e+01    5.239987e+02
  1.863554e+01    5.232693e+02
  1.865832e+01    5.225735e+02
  1.868111e+01    5.218327e+02
  1.870389e+01    5.211561e+02
  1.872667e+01    5.205006e+02
  1.874945e+01    5.198369e+02
  1.877224e+01    5.191637e+02
  1.879502e+01    5.185725e+02
  1.881780e+01    5.179393e+02
  1.884059e+01    5.172851e+02
  1.886337e+01    5.165986e+02
  1.888615e+01    5.159285e+02
  1.890893e+01    5.153092e+02
  1.893172e+01    5.145981e+02
  1.895450e+01    5.139157e+02
  1.897728e+01    5.132762e+02
  1.900007e+01    5.126113e+02
  1.902285e+01    5.119838e+02
  1.904563e+01    5.113066e+02
  1.906841e+01    5.106398e+02
  1.909120e+01    5.099680e+02
  1.911398e+01    5.091902e+02
  1.913676e+01    5.085768e+02
  1.915955e+01    5.079340e+02
  1.918233e+01    5.073387e+02
  1.920511e+01    5.067335e+02
  1.922789e+01    5.059944e+02
  1.925068e+01    5.053135e+02
  1.927346e+01    5.046352e+02
  1.929624e+01    5.039377e+02
  1.931902e+01    5.032847e+02
  1.934181e+01    5.026597e+02
  1.936459e+01    5.019776e+02
  1.938737e+01    5.012309e+02
  1.941016e+01    5.006107e+02
  1.943294e+01    4.999320e+02
  1.945572e+01    4.991622e+02
  1.947850e+01    4.984411e+02
  1.950129e+01    4.977447e+02
  1.952407e+01    4.971418e+02
  1.954685e+01    4.964659e+02
  1.956964e+01    4.958578e+02
  1.959242e+01    4.952041e+02
  1.961520e+01    4.945297e+02
  1.963798e+01    4.938580e+02
  1.966077e+01    4.932084e+02
  1.968355e+01    4.924639e+02
  1.970633e+01    4.917119e+02
  1.972912e+01    4.910691e+02
  1.975190e+01    4.904068e+02
  1.977468e+01    4.896821e+02
  1.979746e+01    4.888979e+02
  1.982025e+01    4.882103e+02
  1.984303e+01    4.874915e+02
  1.986581e+01    4.868403e+02
  1.988859e+01    4.861339e+02
  1.991138e+01    4.853574e+02
  1.993416e+01    4.846268e+02
  1.995694e+01    4.838084e+02
  1.997973e+01    4.830965e+02
  2.000251e+01    4.824114e+02
  2.002529e+01    4.816576e+02
  2.004807e+01    4.809150e+02
  2.007086e+01    4.801023e+02
  2.009364e+01    4.793456e+02
  2.011642e+01    4.785896e+02
  2.013921e+01    4.778387e+02
  2.016199e+01    4.770107e+02
  2.018477e+01    4.762517e+02
  2.020755e+01    4.754890e+02
  2.023034e+01    4.747543e+02
  2.025312e+01    4.739465e+02
  2.027590e+01    4.731322e+02
  2.029868e+01    4.723488e+02
  2.032147e+01    4.715611e+02
  2.034425e+01    4.707693e+02
  2.036703e+01    4.699577e+02
  2.038982e+01    4.692151e+02
  2.041260e+01    4.684128e+02
  2.043538e+01    4.676753e+02
  2.045816e+01    4.669318e+02
  2.048095e+01    4.661841e+02
  2.050373e+01    4.654276e+02
  2.052651e+01    4.646990e+02
  2.054930e+01    4.639495e+02
  2.057208e+01    4.632200e+02
  2.059486e+01    4.624819e+02
  2.061764e+01    4.617876e+02
  2.064043e+01    4.610537e+02
  2.066321e+01    4.602918e+02
  2.068599e+01    4.595526e+02
  2.070878e+01    4.588098e+02
  2.073156e+01    4.581163e+02
  2.075434e+01    4.573445e+02
  2.077712e+01    4.565819e+02
  2.079991e+01    4.558256e+02
  2.082269e+01    4.551148e+02
  2.084547e+01    4.543652e+02
  2.086825e+01    4.535779e+02
  2.089104e+01    4.528805e+02
  2.091382e+01    4.521324e+02
  2.093660e+01    4.513984e+02
  2.095939e+01    4.506518e+02
  2.098217e+01    4.498730e+02
  2.100495e+01    4.491505e+02
  2.102773e+01    4.484563e+02
  2.105052e+01    4.476829e+02
  2.107330e+01    4.468643e+02
  2.109608e+01    4.461298e+02
  2.111887e+01    4.453726e+02
  2.114165e+01    4.446170e+02
  2.116443e+01    4.438645e+02
  2.118721e+01    4.431510e+02
  2.121000e+01    4.424319e+02
  2.123278e+01    4.416795e+02
  2.125556e+01    4.409325e+02
  2.127835e+01    4.401725e+02
  2.130113e+01    4.394781e+02
  2.132391e+01    4.387861e+02
  2.134669e+01    4.380024e+02
  2.136948e+01    4.372071e+02
  2.139226e+01    4.364896e+02
  2.141504e+01    4.359099e+02
  2.143782e+01    4.354229e+02
  2.146061e+01    4.345047e+02
  2.148339e+01    4.336701e+02
  2.150617e+01    4.329212e+02
  2.152896e+01    4.321529e+02
  2.155174e+01    4.314276e+02
  2.157452e+01    4.306551e+02
  2.159730e+01    4.299289e+02
  2.162009e+01    4.291551e+02
  2.164287e+01    4.283584e+02
  2.166565e+01    4.276371e+02
  2.168844e+01    4.269154e+02
  2.171122e+01    4.261998e+02
  2.173400e+01    4.254087e+02
  2.175678e+01    4.246860e+02
  2.177957e+01    4.240095e+02
  2.180235e+01    4.232558e+02
  2.182513e+01    4.225520e+02
  2.184791e+01    4.217934e+02
  2.187070e+01    4.210576e+02
  2.189348e+01    4.203367e+02
  2.191626e+01    4.196127e+02
  2.193905e+01    4.189047e+02
  2.196183e+01    4.181984e+02
  2.198461e+01    4.174881e+02
  2.200739e+01    4.168355e+02
  2.203018e+01    4.160806e+02
  2.205296e+01    4.153484e+02
  2.207574e+01    4.146605e+02
  2.209853e+01    4.139599e+02
  2.212131e+01    4.132300e+02
  2.214409e+01    4.124830e+02
  2.216687e+01    4.118051e+02
  2.218966e+01    4.111563e+02
  2.221244e+01    4.104276e+02
  2.223522e+01    4.097596e+02
  2.225801e+01    4.090700e+02
  2.228079e+01    4.083910e+02
  2.230357e+01    4.076503e+02
  2.232635e+01    4.069389e+02
  2.234914e+01    4.062552e+02
  2.237192e+01    4.055620e+02
  2.239470e+01    4.048799e+02
  2.241748e+01    4.041443e+02
  2.244027e+01    4.034630e+02
  2.246305e+01    4.027724e+02
  2.248583e+01    4.021069e+02
  2.250862e+01    4.014760e+02
  2.253140e+01    4.008313e+02
  2.255418e+01    4.001510e+02
  2.257696e+01    3.994795e+02
  2.259975e+01    3.987721e+02
  2.262253e+01    3.981329e+02
  2.264531e+01    3.974746e+02
  2.266810e+01    3.968140e+02
  2.269088e+01    3.961618e+02
  2.271366e+01    3.954960e+02
  2.273644e+01    3.948651e+02
  2.275923e+01    3.942073e+02
  2.278201e+01    3.935620e+02
  2.280479e+01    3.928681e+02
  2.282758e+01    3.922094e+02
  2.285036e+01    3.915829e+02
  2.287314e+01    3.909617e+02
  2.289592e+01    3.903131e+02
  2.291871e+01    3.896347e+02
  2.294149e+01    3.889528e+02
  2.296427e+01    3.883126e+02
  2.298705e+01    3.876840e+02
  2.300984e+01    3.870638e+02
  2.303262e+01    3.864009e+02
  2.305540e+01    3.857720e+02
  2.307819e+01    3.851006e+02
  2.310097e+01    3.844305e+02
  2.312375e+01    3.838140e+02
  2.314653e+01    3.831225e+02
  2.316932e+01    3.824765e+02
  2.319210e+01    3.818068e+02
  2.321488e+01    3.812208e+02
  2.323767e+01    3.805569e+02
  2.326045e+01    3.799081e+02
  2.328323e+01    3.792301e+02
  2.330601e+01    3.786085e+02
  2.332880e+01    3.779279e+02
  2.335158e+01    3.772431e+02
  2.337436e+01    3.766438e+02
  2.339714e+01    3.759955e+02
  2.341993e+01    3.754378e+02
  2.344271e+01    3.748149e+02
  2.346549e+01    3.741267e+02
  2.348828e+01    3.734726e+02
  2.351106e+01    3.727738e+02
  2.353384e+01    3.721206e+02
  2.355662e+01    3.715201e+02
  2.357941e+01    3.708615e+02
  2.360219e+01    3.701956e+02
  2.362497e+01    3.695343e+02
  2.364776e+01    3.688759e+02
  2.367054e+01    3.682521e+02
  2.369332e+01    3.679056e+02
  2.371610e+01    3.673456e+02
  2.373889e+01    3.665598e+02
  2.376167e+01    3.658342e+02
  2.378445e+01    3.651340e+02
  2.380724e+01    3.644651e+02
  2.383002e+01    3.637661e+02
  2.385280e+01    3.631095e+02
  2.387558e+01    3.624171e+02
  2.389837e+01    3.617731e+02
  2.392115e+01    3.610640e+02
  2.394393e+01    3.604247e+02
  2.396671e+01    3.597836e+02
  2.398950e+01    3.590626e+02
  2.401228e+01    3.583846e+02
  2.403506e+01    3.577521e+02
  2.405785e+01    3.571182e+02
  2.408063e+01    3.564428e+02
  2.410341e+01    3.557928e+02
  2.412619e+01    3.550881e+02
  2.414898e+01    3.544288e+02
  2.417176e+01    3.537689e+02
  2.419454e+01    3.531602e+02
  2.421733e+01    3.525245e+02
  2.424011e+01    3.518764e+02
  2.426289e+01    3.511855e+02
  2.428567e+01    3.505241e+02
  2.430846e+01    3.498594e+02
  2.433124e+01    3.492402e+02
  2.435402e+01    3.485977e+02
  2.437681e+01    3.478939e+02
  2.439959e+01    3.472412e+02
  2.442237e+01    3.465929e+02
  2.444515e+01    3.459053e+02
  2.446794e+01    3.452173e+02
  2.449072e+01    3.445454e+02
  2.451350e+01    3.439089e+02
  2.453628e+01    3.431962e+02
  2.455907e+01    3.425568e+02
  2.458185e+01    3.419422e+02
  2.460463e+01    3.412669e+02
  2.462742e+01    3.405567e+02
  2.465020e+01    3.399144e+02
  2.467298e+01    3.392258e+02
  2.469576e+01    3.385477e+02
  2.471855e+01    3.379258e+02
  2.474133e+01    3.372570e+02
  2.476411e+01    3.366039e+02
  2.478690e+01    3.359221e+02
  2.480968e+01    3.352593e+02
  2.483246e+01    3.345998e+02
  2.485524e+01    3.339583e+02
  2.487803e+01    3.332851e+02
  2.490081e+01    3.326285e+02
  2.492359e+01    3.319792e+02
  2.494637e+01    3.312794e+02
  2.496916e+01    3.305591e+02
  2.499194e+01    3.298790e+02
  2.501472e+01    3.292444e+02
  2.503751e+01    3.285711e+02
  2.506029e+01    3.279227e+02
  2.508307e+01    3.272696e+02
  2.510585e+01    3.266026e+02
  2.512864e+01    3.259445e+02
  2.515142e+01    3.252577e+02
  2.517420e+01    3.245677e+02
  2.519699e+01    3.239180e+02
  2.521977e+01    3.232565e+02
  2.524255e+01    3.226235e+02
  2.526533e+01    3.220102e+02
  2.528812e+01    3.213781e+02
  2.531090e+01    3.207125e+02
  2.533368e+01    3.200775e+02
  2.535647e+01    3.194168e+02
  2.537925e+01    3.188284e+02
  2.540203e+01    3.182295e+02
  2.542481e+01    3.175721e+02
  2.544760e+01    3.169146e+02
  2.547038e+01    3.162847e+02
  2.549316e+01    3.156664e+02
  2.551594e+01    3.150479e+02
  2.553873e+01    3.144255e+02
  2.556151e+01    3.137744e+02
  2.558429e+01    3.131508e+02
  2.560708e+01    3.125522e+02
  2.562986e+01    3.118917e+02
  2.565264e+01    3.112292e+02
  2.567542e+01    3.106076e+02
  2.569821e+01    3.099870e+02
  2.572099e+01    3.093881e+02
  2.574377e+01    3.087765e+02
  2.576656e+01    3.081685e+02
  2.578934e+01    3.075256e+02
  2.581212e+01    3.069259e+02
  2.583490e+01    3.063078e+02
  2.585769e+01    3.056893e+02
  2.588047e+01    3.050401e+02
  2.590325e+01    3.044401e+02
  2.592604e+01    3.037757e+02
  2.594882e+01    3.031594e+02
  2.597160e+01    3.025936e+02
  2.599438e+01    3.019124e+02
  2.601717e+01    3.013349e+02
  2.603995e+01    3.006911e+02
  2.606273e+01    3.001248e+02
  2.608551e+01    2.994738e+02
  2.610830e+01    2.988642e+02
  2.613108e+01    2.982727e+02
  2.615386e+01    2.976521e+02
  2.617665e+01    2.970554e+02
  2.619943e+01    2.964209e+02
  2.622221e+01    2.958092e+02
  2.624499e+01    2.951967e+02
  2.626778e+01    2.946293e+02
  2.629056e+01    2.940355e+02
  2.631334e+01    2.934733e+02
  2.633613e+01    2.927968e+02
  2.635891e+01    2.921750e+02
  2.638169e+01    2.915854e+02
  2.640447e+01    2.909639e+02
  2.642726e+01    2.903510e+02
  2.645004e+01    2.897109e+02
  2.647282e+01    2.890872e+02
  2.649560e+01    2.885142e+02
  2.651839e+01    2.879072e+02
  2.654117e+01    2.873531e+02
  2.656395e+01    2.867109e+02
  2.658674e+01    2.860939e+02
  2.660952e+01    2.854773e+02
  2.663230e+01    2.848575e+02
  2.665508e+01    2.842560e+02
  2.667787e+01    2.836422e+02
  2.670065e+01    2.830649e+02
  2.672343e+01    2.824661e+02
  2.674622e+01    2.818833e+02
  2.676900e+01    2.812618e+02
  2.679178e+01    2.806591e+02
  2.681456e+01    2.800630e+02
  2.683735e+01    2.794618e+02
  2.686013e+01    2.788749e+02
  2.688291e+01    2.782570e+02
  2.690570e+01    2.776772e+02
  2.692848e+01    2.770563e+02
  2.695126e+01    2.764858e+02
  2.697404e+01    2.758603e+02
  2.699683e+01    2.752279e+02
  2.701961e+01    2.746135e+02
  2.704239e+01    2.740324e+02
  2.706517e+01    2.733706e+02
  2.708796e+01    2.727473e+02
  2.711074e+01    2.721833e+02
  2.713352e+01    2.715703e+02
  2.715631e+01    2.709541e+02
  2.717909e+01    2.703470e+02
  2.720187e+01    2.700494e+02
  2.722465e+01    2.703019e+02
  2.724744e+01    2.702008e+02
  2.727022e+01    2.699291e+02
  2.729300e+01    2.696349e+02
  2.731579e+01    2.693031e+02
  2.733857e+01    2.689034e+02
  2.736135e+01    2.685246e+02
  2.738413e+01    2.680987e+02
  2.740692e+01    2.676185e+02
  2.742970e+01    2.667523e+02
  2.745248e+01    2.659720e+02
  2.747527e+01    2.652606e+02
  2.749805e+01    2.645880e+02
  2.752083e+01    2.639018e+02
  2.754361e+01    2.632525e+02
  2.756640e+01    2.625999e+02
  2.758918e+01    2.618399e+02
  2.761196e+01    2.604888e+02
  2.763474e+01    2.592714e+02
  2.765753e+01    2.582039e+02
  2.768031e+01    2.571918e+02
  2.770309e+01    2.562369e+02
  2.772588e+01    2.552799e+02
  2.774866e+01    2.544050e+02
  2.777144e+01    2.534938e+02
  2.779422e+01    2.531593e+02
  2.781701e+01    2.533872e+02
  2.783979e+01    2.530921e+02
  2.786257e+01    2.527320e+02
  2.788536e+01    2.523025e+02
  2.790814e+01    2.518645e+02
  2.793092e+01    2.513762e+02
  2.795370e+01    2.508953e+02
  2.797649e+01    2.503481e+02
  2.799927e+01    2.498281e+02
  2.802205e+01    2.493366e+02
  2.804483e+01    2.488398e+02
  2.806762e+01    2.483271e+02
  2.809040e+01    2.477953e+02
  2.811318e+01    2.472918e+02
  2.813597e+01    2.467130e+02
  2.815875e+01    2.461659e+02
  2.818153e+01    2.456274e+02
  2.820431e+01    2.450848e+02
  2.822710e+01    2.445341e+02
  2.824988e+01    2.440039e+02
  2.827266e+01    2.434279e+02
  2.829545e+01    2.428910e+02
  2.831823e+01    2.423492e+02
  2.834101e+01    2.418042e+02
  2.836379e+01    2.412342e+02
  2.838658e+01    2.406954e+02
  2.840936e+01    2.401445e+02
  2.843214e+01    2.395283e+02
  2.845493e+01    2.390409e+02
  2.847771e+01    2.384811e+02
  2.850049e+01    2.379185e+02
  2.852327e+01    2.373994e+02
  2.854606e+01    2.368142e+02
  2.856884e+01    2.362782e+02
  2.859162e+01    2.357237e+02
  2.861440e+01    2.351677e+02
  2.863719e+01    2.346163e+02
  2.865997e+01    2.340556e+02
  2.868275e+01    2.335325e+02
  2.870554e+01    2.329601e+02
  2.872832e+01    2.323380e+02
  2.875110e+01    2.318075e+02
  2.877388e+01    2.312860e+02
  2.879667e+01    2.307054e+02
  2.881945e+01    2.301666e+02
  2.884223e+01    2.295824e+02
  2.886502e+01    2.290178e+02
  2.888780e+01    2.284339e+02
  2.891058e+01    2.278417e+02
  2.893336e+01    2.273580e+02
  2.895615e+01    2.268273e+02
  2.897893e+01    2.262991e+02
  2.900171e+01    2.257182e+02
  2.902450e+01    2.251768e+02
  2.904728e+01    2.246227e+02
  2.907006e+01    2.240780e+02
  2.909284e+01    2.235863e+02
  2.911563e+01    2.229520e+02
  2.913841e+01    2.224499e+02
  2.916119e+01    2.218835e+02
  2.918397e+01    2.213048e+02
  2.920676e+01    2.207167e+02
  2.922954e+01    2.201709e+02
  2.925232e+01    2.196351e+02
  2.927511e+01    2.190508e+02
  2.929789e+01    2.185340e+02
  2.932067e+01    2.179313e+02
  2.934345e+01    2.174415e+02
  2.936624e+01    2.169018e+02
  2.938902e+01    2.163813e+02
  2.941180e+01    2.157782e+02
  2.943459e+01    2.151942e+02
  2.945737e+01    2.146717e+02
  2.948015e+01    2.141338e+02
  2.950293e+01    2.136232e+02
  2.952572e+01    2.131150e+02
  2.954850e+01    2.125662e+02
  2.957128e+01    2.120300e+02
  2.959407e+01    2.115360e+02
  2.961685e+01    2.110087e+02
  2.963963e+01    2.104430e+02
  2.966241e+01    2.098900e+02
  2.968520e+01    2.093577e+02
  2.970798e+01    2.088597e+02
  2.973076e+01    2.082351e+02
  2.975354e+01    2.077499e+02
  2.977633e+01    2.071986e+02
  2.979911e+01    2.066970e+02
  2.982189e+01    2.061627e+02
  2.984468e+01    2.056156e+02
  2.986746e+01    2.051213e+02
  2.989024e+01    2.045656e+02
  2.991302e+01    2.039953e+02
  2.993581e+01    2.035168e+02
  2.995859e+01    2.030009e+02
  2.998137e+01    2.024567e+02
  3.000416e+01    2.019498e+02
  3.002694e+01    2.014389e+02
  3.004972e+01    2.009275e+02
  3.007250e+01    2.004025e+02
  3.009529e+01    1.998428e+02
  3.011807e+01    1.993229e+02
  3.014085e+01    1.988259e+02
  3.016363e+01    1.982848e+02
  3.018642e+01    1.978508e+02
  3.020920e+01    1.973113e+02
  3.023198e+01    1.967539e+02
  3.025477e+01    1.962226e+02
  3.027755e+01    1.956949e+02
  3.030033e+01    1.952097e+02
  3.032311e+01    1.947616e+02
  3.034590e+01    1.942011e+02
  3.036868e+01    1.937141e+02
  3.039146e+01    1.932665e+02
  3.041425e+01    1.928039e+02
  3.043703e+01    1.922888e+02
  3.045981e+01    1.917278e+02
  3.048259e+01    1.911707e+02
  3.050538e+01    1.907640e+02
  3.052816e+01    1.902013e+02
  3.055094e+01    1.896719e+02
  3.057373e+01    1.891002e+02
  3.059651e+01    1.887908e+02
  3.061929e+01    1.882301e+02
  3.064207e+01    1.877936e+02
  3.066486e+01    1.870806e+02
  3.068764e+01    1.867002e+02
  3.071042e+01    1.861978e+02
  3.073320e+01    1.857105e+02
  3.075599e+01    1.852698e+02
  3.077877e+01    1.847061e+02
  3.080155e+01    1.842184e+02
  3.082434e+01    1.837811e+02
  3.084712e+01    1.832607e+02
  3.086990e+01    1.827197e+02
  3.089268e+01    1.821156e+02
  3.091547e+01    1.817103e+02
  3.093825e+01    1.812766e+02
  3.096103e+01    1.807873e+02
  3.098382e+01    1.803601e+02
  3.100660e+01    1.798346e+02
  3.102938e+01    1.793597e+02
  3.105216e+01    1.788773e+02
  3.107495e+01    1.782986e+02
  3.109773e+01    1.779030e+02
  3.112051e+01    1.775413e+02
  3.114330e+01    1.769997e+02
  3.116608e+01    1.764518e+02
  3.118886e+01    1.760187e+02
  3.121164e+01    1.755579e+02
  3.123443e+01    1.750570e+02
  3.125721e+01    1.747265e+02
  3.127999e+01    1.740095e+02
  3.130277e+01    1.736956e+02
  3.132556e+01    1.730638e+02
  3.134834e+01    1.726753e+02
  3.137112e+01    1.722860e+02
  3.139391e+01    1.717505e+02
  3.141669e+01    1.714056e+02
  3.143947e+01    1.709781e+02
  3.146225e+01    1.705088e+02
  3.148504e+01    1.699677e+02
  3.150782e+01    1.693125e+02
  3.153060e+01    1.690725e+02
  3.155339e+01    1.686711e+02
  3.157617e+01    1.681816e+02
  3.159895e+01    1.677627e+02
  3.162173e+01    1.672998e+02
  3.164452e+01    1.667468e+02
  3.166730e+01    1.663101e+02
  3.169008e+01    1.658750e+02
  3.171286e+01    1.653428e+02
  3.173565e+01    1.648275e+02
  3.175843e+01    1.644358e+02
  3.178121e+01    1.639524e+02
  3.180400e+01    1.636020e+02
  3.182678e+01    1.630177e+02
  3.184956e+01    1.624131e+02
  3.187234e+01    1.621643e+02
  3.189513e+01    1.616673e+02
  3.191791e+01    1.611718e+02
  3.194069e+01    1.606992e+02
  3.196348e+01    1.603433e+02
  3.198626e+01    1.597374e+02
  3.200904e+01    1.592225e+02
  3.203182e+01    1.586936e+02
  3.205461e+01    1.581681e+02
  3.207739e+01    1.578431e+02
  3.210017e+01    1.573793e+02
  3.212296e+01    1.567832e+02
  3.214574e+01    1.563729e+02
  3.216852e+01    1.559133e+02
  3.219130e+01    1.554170e+02
  3.221409e+01    1.549753e+02
  3.223687e+01    1.545475e+02
  3.225965e+01    1.540513e+02
  3.228243e+01    1.534546e+02
  3.230522e+01    1.529845e+02
  3.232800e+01    1.524926e+02
  3.235078e+01    1.519871e+02
  3.237357e+01    1.514816e+02
  3.239635e+01    1.510495e+02
  3.241913e+01    1.505438e+02
  3.244191e+01    1.500695e+02
  3.246470e+01    1.494784e+02
  3.248748e+01    1.489349e+02
  3.251026e+01    1.484818e+02
  3.253305e+01    1.479038e+02
  3.255583e+01    1.472839e+02
  3.257861e+01    1.469571e+02
  3.260139e+01    1.463741e+02
  3.262418e+01    1.459033e+02
  3.264696e+01    1.453320e+02
  3.266974e+01    1.448722e+02
  3.269253e+01    1.443788e+02
  3.271531e+01    1.438449e+02
  3.273809e+01    1.434331e+02
  3.276087e+01    1.428552e+02
  3.278366e+01    1.422367e+02
  3.280644e+01    1.417843e+02
  3.282922e+01    1.413324e+02
  3.285200e+01    1.407521e+02
  3.287479e+01    1.402408e+02
  3.289757e+01    1.397295e+02
  3.292035e+01    1.390893e+02
  3.294314e+01    1.385882e+02
  3.296592e+01    1.381261e+02
  3.298870e+01    1.375130e+02
  3.301148e+01    1.369478e+02
  3.303427e+01    1.363491e+02
  3.305705e+01    1.357348e+02
  3.307983e+01    1.352244e+02
  3.310262e+01    1.346653e+02
  3.312540e+01    1.340935e+02
  3.314818e+01    1.335413e+02
  3.317096e+01    1.329027e+02
  3.319375e+01    1.323868e+02
  3.321653e+01    1.320152e+02
  3.323931e+01    1.314927e+02
  3.326209e+01    1.309985e+02
  3.328488e+01    1.302082e+02
  3.330766e+01    1.295679e+02
  3.333044e+01    1.286865e+02
  3.335323e+01    1.283699e+02
  3.337601e+01    1.281948e+02
  3.339879e+01    1.274658e+02
  3.342157e+01    1.273666e+02
  3.344436e+01    1.263982e+02
  3.346714e+01    1.253969e+02
  3.348992e+01    1.249758e+02
  3.351271e+01    1.248306e+02
  3.353549e+01    0.000000e+00
  3.355827e+01    0.000000e+00
  3.358105e+01    0.000000e+00
  3.360384e+01    0.000000e+00
  3.362662e+01    0.000000e+00
  3.364940e+01    0.000000e+00
  3.367219e+01    0.000000e+00
  3.369497e+01    0.000000e+00
  3.371775e+01    0.000000e+00
