# == pyFAI calibration ==
# Distance Sample to Detector: 0.21311058206280517 m
# PONI: 2.037e-01, 1.993e-01 m
# Rotations: -0.005459 0.000134 0.000000 rad
# 
# == Fit2d calibration ==
# Distance Sample-beamCenter: 213.114 mm
# Center: x=1002.134, y=1018.730 pix
# Tilt: 0.313 deg  TiltPlanRot: 1.411 deg
# 
# Detector Perkin detector	 PixelSize= 2.000e-04, 2.000e-04 m
#    Detector has a mask: False 
#    Detector has a dark current: False 
#    detector has a flat field: False 
# 
# Wavelength: 1.675e-11 m
# Mask applied: provided
# Dark current applied: False
# Flat field applied: False
# Polarization factor: None
# Normalization factor: 1.0
# --> data/chi_bkgsub_false/C_Tatania1-49.5-average.chi
#        q_A^-1             I 
  2.199784e-02    1.258384e+02
  4.478064e-02    1.271039e+02
  6.756343e-02    1.273656e+02
  9.034623e-02    1.279529e+02
  1.131290e-01    1.301192e+02
  1.359118e-01    1.322740e+02
  1.586946e-01    1.356801e+02
  1.814774e-01    1.399439e+02
  2.042602e-01    1.458635e+02
  2.270430e-01    1.571679e+02
  2.498258e-01    1.781472e+02
  2.726086e-01    2.150154e+02
  2.953914e-01    4.089524e+02
  3.181742e-01    6.491332e+02
  3.409570e-01    1.044434e+03
  3.637398e-01    1.470844e+03
  3.865226e-01    1.193219e+03
  4.093054e-01    8.845356e+02
  4.320881e-01    7.125418e+02
  4.548709e-01    6.352698e+02
  4.776537e-01    6.834244e+02
  5.004365e-01    7.302768e+02
  5.232193e-01    7.667621e+02
  5.460021e-01    8.151574e+02
  5.687849e-01    8.797756e+02
  5.915677e-01    9.556469e+02
  6.143505e-01    1.045706e+03
  6.371333e-01    1.165973e+03
  6.599161e-01    1.283474e+03
  6.826989e-01    1.402143e+03
  7.054817e-01    1.508479e+03
  7.282645e-01    1.592611e+03
  7.510473e-01    1.657441e+03
  7.738301e-01    1.703985e+03
  7.966129e-01    1.746635e+03
  8.193956e-01    1.790940e+03
  8.421784e-01    1.835091e+03
  8.649612e-01    1.882445e+03
  8.877440e-01    1.934583e+03
  9.105268e-01    1.987180e+03
  9.333096e-01    2.044721e+03
  9.560924e-01    2.106511e+03
  9.788752e-01    2.170485e+03
  1.001658e+00    2.240510e+03
  1.024441e+00    2.314350e+03
  1.047224e+00    2.392574e+03
  1.070006e+00    2.478804e+03
  1.092789e+00    2.569542e+03
  1.115572e+00    2.664902e+03
  1.138355e+00    2.769686e+03
  1.161138e+00    2.878263e+03
  1.183920e+00    2.993503e+03
  1.206703e+00    3.118112e+03
  1.229486e+00    3.244418e+03
  1.252269e+00    3.380422e+03
  1.275052e+00    3.525695e+03
  1.297834e+00    3.664950e+03
  1.320617e+00    3.814823e+03
  1.343400e+00    3.970942e+03
  1.366183e+00    4.124785e+03
  1.388966e+00    4.284311e+03
  1.411748e+00    4.442955e+03
  1.434531e+00    4.599994e+03
  1.457314e+00    4.755416e+03
  1.480097e+00    4.896631e+03
  1.502879e+00    5.033418e+03
  1.525662e+00    5.163309e+03
  1.548445e+00    5.276199e+03
  1.571228e+00    5.375442e+03
  1.594011e+00    5.461374e+03
  1.616793e+00    5.535528e+03
  1.639576e+00    5.587727e+03
  1.662359e+00    5.622289e+03
  1.685142e+00    5.648976e+03
  1.707925e+00    5.655137e+03
  1.730707e+00    5.647484e+03
  1.753490e+00    5.633232e+03
  1.776273e+00    5.608423e+03
  1.799056e+00    5.571581e+03
  1.821839e+00    5.518973e+03
  1.844621e+00    5.463783e+03
  1.867404e+00    5.412242e+03
  1.890187e+00    5.348094e+03
  1.912970e+00    5.285370e+03
  1.935753e+00    5.226810e+03
  1.958535e+00    5.168943e+03
  1.981318e+00    5.110448e+03
  2.004101e+00    5.052301e+03
  2.026884e+00    4.997565e+03
  2.049667e+00    4.939837e+03
  2.072449e+00    4.875754e+03
  2.095232e+00    4.817691e+03
  2.118015e+00    4.760375e+03
  2.140798e+00    4.705403e+03
  2.163581e+00    4.630885e+03
  2.186363e+00    4.539430e+03
  2.209146e+00    4.446730e+03
  2.231929e+00    4.348195e+03
  2.254712e+00    4.250075e+03
  2.277494e+00    4.155306e+03
  2.300277e+00    4.056582e+03
  2.323060e+00    3.954051e+03
  2.345843e+00    3.853944e+03
  2.368626e+00    3.752495e+03
  2.391408e+00    3.654159e+03
  2.414191e+00    3.555589e+03
  2.436974e+00    3.462942e+03
  2.459757e+00    3.378706e+03
  2.482540e+00    3.291069e+03
  2.505322e+00    3.196384e+03
  2.528105e+00    3.101878e+03
  2.550888e+00    3.014971e+03
  2.573671e+00    2.936835e+03
  2.596454e+00    2.868304e+03
  2.619236e+00    2.811009e+03
  2.642019e+00    2.760927e+03
  2.664802e+00    2.714708e+03
  2.687585e+00    2.678379e+03
  2.710368e+00    2.650926e+03
  2.733150e+00    2.634993e+03
  2.755933e+00    2.624483e+03
  2.778716e+00    2.620933e+03
  2.801499e+00    2.626090e+03
  2.824282e+00    2.631868e+03
  2.847064e+00    2.638784e+03
  2.869847e+00    2.647946e+03
  2.892630e+00    2.656898e+03
  2.915413e+00    2.661527e+03
  2.938196e+00    2.664386e+03
  2.960978e+00    2.663983e+03
  2.983761e+00    2.661611e+03
  3.006544e+00    2.657541e+03
  3.029327e+00    2.652004e+03
  3.052110e+00    2.644359e+03
  3.074892e+00    2.632556e+03
  3.097675e+00    2.618886e+03
  3.120458e+00    2.605837e+03
  3.143241e+00    2.593055e+03
  3.166023e+00    2.579747e+03
  3.188806e+00    2.565482e+03
  3.211589e+00    2.550219e+03
  3.234372e+00    2.535077e+03
  3.257155e+00    2.520714e+03
  3.279937e+00    2.508271e+03
  3.302720e+00    2.495607e+03
  3.325503e+00    2.483511e+03
  3.348286e+00    2.472036e+03
  3.371069e+00    2.461634e+03
  3.393851e+00    2.452999e+03
  3.416634e+00    2.446099e+03
  3.439417e+00    2.441306e+03
  3.462200e+00    2.442933e+03
  3.484983e+00    2.449206e+03
  3.507765e+00    2.452076e+03
  3.530548e+00    2.452182e+03
  3.553331e+00    2.448210e+03
  3.576114e+00    2.444260e+03
  3.598897e+00    2.443161e+03
  3.621679e+00    2.446608e+03
  3.644462e+00    2.455040e+03
  3.667245e+00    2.462319e+03
  3.690028e+00    2.470099e+03
  3.712811e+00    2.478988e+03
  3.735593e+00    2.489658e+03
  3.758376e+00    2.500606e+03
  3.781159e+00    2.511375e+03
  3.803942e+00    2.522988e+03
  3.826725e+00    2.534227e+03
  3.849507e+00    2.544073e+03
  3.872290e+00    2.554372e+03
  3.895073e+00    2.568909e+03
  3.917856e+00    2.580128e+03
  3.940638e+00    2.587512e+03
  3.963421e+00    2.598417e+03
  3.986204e+00    2.610154e+03
  4.008987e+00    2.620951e+03
  4.031770e+00    2.631618e+03
  4.054552e+00    2.645052e+03
  4.077335e+00    2.661260e+03
  4.100118e+00    2.670691e+03
  4.122901e+00    2.680365e+03
  4.145684e+00    2.686295e+03
  4.168466e+00    2.688142e+03
  4.191249e+00    2.687862e+03
  4.214032e+00    2.688330e+03
  4.236815e+00    2.691984e+03
  4.259598e+00    2.691344e+03
  4.282380e+00    2.684260e+03
  4.305163e+00    2.680711e+03
  4.327946e+00    2.675714e+03
  4.350729e+00    2.669244e+03
  4.373512e+00    2.661747e+03
  4.396294e+00    2.653679e+03
  4.419077e+00    2.644059e+03
  4.441860e+00    2.631917e+03
  4.464643e+00    2.621414e+03
  4.487426e+00    2.617428e+03
  4.510208e+00    2.601587e+03
  4.532991e+00    2.581952e+03
  4.555774e+00    2.566578e+03
  4.578557e+00    2.550747e+03
  4.601340e+00    2.533781e+03
  4.624122e+00    2.516065e+03
  4.646905e+00    2.500897e+03
  4.669688e+00    2.487974e+03
  4.692471e+00    2.463971e+03
  4.715253e+00    2.444739e+03
  4.738036e+00    2.428134e+03
  4.760819e+00    2.411593e+03
  4.783602e+00    2.394645e+03
  4.806385e+00    2.378424e+03
  4.829167e+00    2.368098e+03
  4.851950e+00    2.352681e+03
  4.874733e+00    2.334587e+03
  4.897516e+00    2.322428e+03
  4.920299e+00    2.311256e+03
  4.943081e+00    2.300917e+03
  4.965864e+00    2.289964e+03
  4.988647e+00    2.279561e+03
  5.011430e+00    2.269844e+03
  5.034213e+00    2.252676e+03
  5.056995e+00    2.240424e+03
  5.079778e+00    2.234116e+03
  5.102561e+00    2.217707e+03
  5.125344e+00    2.202885e+03
  5.148127e+00    2.190317e+03
  5.170909e+00    2.177738e+03
  5.193692e+00    2.163839e+03
  5.216475e+00    2.149890e+03
  5.239258e+00    2.138419e+03
  5.262041e+00    2.124580e+03
  5.284823e+00    2.103766e+03
  5.307606e+00    2.086791e+03
  5.330389e+00    2.070198e+03
  5.353172e+00    2.052339e+03
  5.375955e+00    2.033205e+03
  5.398737e+00    2.013950e+03
  5.421520e+00    1.997142e+03
  5.444303e+00    1.972548e+03
  5.467086e+00    1.948454e+03
  5.489869e+00    1.926301e+03
  5.512651e+00    1.904841e+03
  5.535434e+00    1.884133e+03
  5.558217e+00    1.864179e+03
  5.581000e+00    1.846871e+03
  5.603782e+00    1.827658e+03
  5.626565e+00    1.805474e+03
  5.649348e+00    1.787820e+03
  5.672131e+00    1.771096e+03
  5.694914e+00    1.750718e+03
  5.717696e+00    1.734061e+03
  5.740479e+00    1.719413e+03
  5.763262e+00    1.705423e+03
  5.786045e+00    1.692214e+03
  5.808828e+00    1.680685e+03
  5.831610e+00    1.672043e+03
  5.854393e+00    1.659055e+03
  5.877176e+00    1.646182e+03
  5.899959e+00    1.635913e+03
  5.922742e+00    1.626600e+03
  5.945524e+00    1.617332e+03
  5.968307e+00    1.608904e+03
  5.991090e+00    1.603310e+03
  6.013873e+00    1.596902e+03
  6.036656e+00    1.586781e+03
  6.059438e+00    1.581069e+03
  6.082221e+00    1.576074e+03
  6.105004e+00    1.566148e+03
  6.127787e+00    1.558242e+03
  6.150570e+00    1.551717e+03
  6.173352e+00    1.546148e+03
  6.196135e+00    1.537818e+03
  6.218918e+00    1.530062e+03
  6.241701e+00    1.524886e+03
  6.264484e+00    1.517084e+03
  6.287266e+00    1.509175e+03
  6.310049e+00    1.502512e+03
  6.332832e+00    1.495936e+03
  6.355615e+00    1.488720e+03
  6.378397e+00    1.481643e+03
  6.401180e+00    1.476065e+03
  6.423963e+00    1.470161e+03
  6.446746e+00    1.461431e+03
  6.469529e+00    1.454061e+03
  6.492311e+00    1.446638e+03
  6.515094e+00    1.438871e+03
  6.537877e+00    1.431120e+03
  6.560660e+00    1.423615e+03
  6.583443e+00    1.417152e+03
  6.606225e+00    1.408690e+03
  6.629008e+00    1.400600e+03
  6.651791e+00    1.394444e+03
  6.674574e+00    1.386833e+03
  6.697357e+00    1.378869e+03
  6.720139e+00    1.371980e+03
  6.742922e+00    1.365610e+03
  6.765705e+00    1.358393e+03
  6.788488e+00    1.351011e+03
  6.811271e+00    1.344601e+03
  6.834053e+00    1.338123e+03
  6.856836e+00    1.330528e+03
  6.879619e+00    1.323707e+03
  6.902402e+00    1.317338e+03
  6.925185e+00    1.310992e+03
  6.947967e+00    1.304781e+03
  6.970750e+00    1.299297e+03
  6.993533e+00    1.294377e+03
  7.016316e+00    1.288808e+03
  7.039099e+00    1.283666e+03
  7.061881e+00    1.278850e+03
  7.084664e+00    1.274266e+03
  7.107447e+00    1.269939e+03
  7.130230e+00    1.265773e+03
  7.153013e+00    1.262254e+03
  7.175795e+00    1.258843e+03
  7.198578e+00    1.255660e+03
  7.221361e+00    1.252985e+03
  7.244144e+00    1.250858e+03
  7.266926e+00    1.248968e+03
  7.289709e+00    1.247360e+03
  7.312492e+00    1.246372e+03
  7.335275e+00    1.245662e+03
  7.358058e+00    1.245011e+03
  7.380840e+00    1.244646e+03
  7.403623e+00    1.244347e+03
  7.426406e+00    1.244088e+03
  7.449189e+00    1.244374e+03
  7.471972e+00    1.245433e+03
  7.494754e+00    1.246573e+03
  7.517537e+00    1.247681e+03
  7.540320e+00    1.249201e+03
  7.563103e+00    1.250885e+03
  7.585886e+00    1.252560e+03
  7.608668e+00    1.254250e+03
  7.631451e+00    1.256225e+03
  7.654234e+00    1.258323e+03
  7.677017e+00    1.259948e+03
  7.699800e+00    1.261479e+03
  7.722582e+00    1.263018e+03
  7.745365e+00    1.264409e+03
  7.768148e+00    1.265877e+03
  7.790931e+00    1.267621e+03
  7.813714e+00    1.268969e+03
  7.836496e+00    1.269978e+03
  7.859279e+00    1.271150e+03
  7.882062e+00    1.271777e+03
  7.904845e+00    1.271922e+03
  7.927628e+00    1.271426e+03
  7.950410e+00    1.271054e+03
  7.973193e+00    1.270346e+03
  7.995976e+00    1.269095e+03
  8.018759e+00    1.267627e+03
  8.041541e+00    1.265880e+03
  8.064324e+00    1.263846e+03
  8.087107e+00    1.261382e+03
  8.109890e+00    1.259001e+03
  8.132673e+00    1.256982e+03
  8.155455e+00    1.253677e+03
  8.178238e+00    1.250381e+03
  8.201021e+00    1.247391e+03
  8.223804e+00    1.244260e+03
  8.246587e+00    1.240870e+03
  8.269369e+00    1.237661e+03
  8.292152e+00    1.234328e+03
  8.314935e+00    1.230707e+03
  8.337718e+00    1.226881e+03
  8.360501e+00    1.223338e+03
  8.383283e+00    1.219821e+03
  8.406066e+00    1.216203e+03
  8.428849e+00    1.212565e+03
  8.451632e+00    1.208753e+03
  8.474415e+00    1.204945e+03
  8.497197e+00    1.201143e+03
  8.519980e+00    1.197191e+03
  8.542763e+00    1.193510e+03
  8.565546e+00    1.190127e+03
  8.588329e+00    1.186678e+03
  8.611111e+00    1.183428e+03
  8.633894e+00    1.179764e+03
  8.656677e+00    1.176445e+03
  8.679460e+00    1.173177e+03
  8.702243e+00    1.169685e+03
  8.725025e+00    1.166412e+03
  8.747808e+00    1.163267e+03
  8.770591e+00    1.160167e+03
  8.793374e+00    1.157052e+03
  8.816156e+00    1.153450e+03
  8.838939e+00    1.149795e+03
  8.861722e+00    1.146017e+03
  8.884505e+00    1.142508e+03
  8.907288e+00    1.138941e+03
  8.930070e+00    1.135167e+03
  8.952853e+00    1.131469e+03
  8.975636e+00    1.127704e+03
  8.998419e+00    1.123812e+03
  9.021202e+00    1.119696e+03
  9.043984e+00    1.115937e+03
  9.066767e+00    1.112118e+03
  9.089550e+00    1.108143e+03
  9.112333e+00    1.104089e+03
  9.135116e+00    1.099870e+03
  9.157898e+00    1.095405e+03
  9.180681e+00    1.090800e+03
  9.203464e+00    1.086170e+03
  9.226247e+00    1.081648e+03
  9.249030e+00    1.076929e+03
  9.271812e+00    1.072421e+03
  9.294595e+00    1.067834e+03
  9.317378e+00    1.063228e+03
  9.340161e+00    1.058863e+03
  9.362944e+00    1.054281e+03
  9.385726e+00    1.049443e+03
  9.408509e+00    1.044667e+03
  9.431292e+00    1.040214e+03
  9.454075e+00    1.035725e+03
  9.476858e+00    1.031317e+03
  9.499640e+00    1.026871e+03
  9.522423e+00    1.022308e+03
  9.545206e+00    1.017564e+03
  9.567989e+00    1.013010e+03
  9.590772e+00    1.008486e+03
  9.613554e+00    1.004390e+03
  9.636337e+00    1.000034e+03
  9.659120e+00    9.959081e+02
  9.681903e+00    9.919308e+02
  9.704685e+00    9.880401e+02
  9.727468e+00    9.841920e+02
  9.750251e+00    9.804968e+02
  9.773034e+00    9.773659e+02
  9.795817e+00    9.739222e+02
  9.818599e+00    9.701860e+02
  9.841382e+00    9.664998e+02
  9.864165e+00    9.632052e+02
  9.886948e+00    9.602173e+02
  9.909731e+00    9.572156e+02
  9.932513e+00    9.543786e+02
  9.955296e+00    9.516765e+02
  9.978079e+00    9.490979e+02
  1.000086e+01    9.466459e+02
  1.002364e+01    9.441862e+02
  1.004643e+01    9.418409e+02
  1.006921e+01    9.394304e+02
  1.009199e+01    9.371089e+02
  1.011478e+01    9.349755e+02
  1.013756e+01    9.327380e+02
  1.016034e+01    9.306065e+02
  1.018312e+01    9.284578e+02
  1.020591e+01    9.262278e+02
  1.022869e+01    9.242578e+02
  1.025147e+01    9.223307e+02
  1.027426e+01    9.204604e+02
  1.029704e+01    9.188915e+02
  1.031982e+01    9.173120e+02
  1.034260e+01    9.157985e+02
  1.036539e+01    9.142535e+02
  1.038817e+01    9.126552e+02
  1.041095e+01    9.110487e+02
  1.043373e+01    9.093962e+02
  1.045652e+01    9.077986e+02
  1.047930e+01    9.061233e+02
  1.050208e+01    9.047786e+02
  1.052487e+01    9.033963e+02
  1.054765e+01    9.019680e+02
  1.057043e+01    9.005654e+02
  1.059321e+01    8.990630e+02
  1.061600e+01    8.974853e+02
  1.063878e+01    8.959196e+02
  1.066156e+01    8.945253e+02
  1.068435e+01    8.931055e+02
  1.070713e+01    8.916322e+02
  1.072991e+01    8.900281e+02
  1.075269e+01    8.884608e+02
  1.077548e+01    8.868293e+02
  1.079826e+01    8.851877e+02
  1.082104e+01    8.835989e+02
  1.084383e+01    8.819925e+02
  1.086661e+01    8.803293e+02
  1.088939e+01    8.788152e+02
  1.091217e+01    8.773754e+02
  1.093496e+01    8.758452e+02
  1.095774e+01    8.741814e+02
  1.098052e+01    8.726187e+02
  1.100330e+01    8.710675e+02
  1.102609e+01    8.694312e+02
  1.104887e+01    8.678037e+02
  1.107165e+01    8.662906e+02
  1.109444e+01    8.647705e+02
  1.111722e+01    8.632034e+02
  1.114000e+01    8.616575e+02
  1.116278e+01    8.599246e+02
  1.118557e+01    8.581860e+02
  1.120835e+01    8.566658e+02
  1.123113e+01    8.550712e+02
  1.125392e+01    8.535256e+02
  1.127670e+01    8.519490e+02
  1.129948e+01    8.504909e+02
  1.132226e+01    8.490264e+02
  1.134505e+01    8.474930e+02
  1.136783e+01    8.460138e+02
  1.139061e+01    8.448332e+02
  1.141340e+01    8.437214e+02
  1.143618e+01    8.425117e+02
  1.145896e+01    8.413792e+02
  1.148174e+01    8.402336e+02
  1.150453e+01    8.391470e+02
  1.152731e+01    8.381543e+02
  1.155009e+01    8.371379e+02
  1.157287e+01    8.360912e+02
  1.159566e+01    8.350375e+02
  1.161844e+01    8.341615e+02
  1.164122e+01    8.332078e+02
  1.166401e+01    8.324723e+02
  1.168679e+01    8.317195e+02
  1.170957e+01    8.310032e+02
  1.173235e+01    8.303146e+02
  1.175514e+01    8.296967e+02
  1.177792e+01    8.291031e+02
  1.180070e+01    8.285212e+02
  1.182349e+01    8.279035e+02
  1.184627e+01    8.273615e+02
  1.186905e+01    8.269233e+02
  1.189183e+01    8.264805e+02
  1.191462e+01    8.260191e+02
  1.193740e+01    8.256086e+02
  1.196018e+01    8.253519e+02
  1.198296e+01    8.250938e+02
  1.200575e+01    8.248431e+02
  1.202853e+01    8.244883e+02
  1.205131e+01    8.240588e+02
  1.207410e+01    8.236353e+02
  1.209688e+01    8.233107e+02
  1.211966e+01    8.228259e+02
  1.214244e+01    8.224550e+02
  1.216523e+01    8.220336e+02
  1.218801e+01    8.215085e+02
  1.221079e+01    8.210561e+02
  1.223358e+01    8.205560e+02
  1.225636e+01    8.198977e+02
  1.227914e+01    8.192150e+02
  1.230192e+01    8.185203e+02
  1.232471e+01    8.177606e+02
  1.234749e+01    8.170480e+02
  1.237027e+01    8.161040e+02
  1.239306e+01    8.151791e+02
  1.241584e+01    8.141609e+02
  1.243862e+01    8.131187e+02
  1.246140e+01    8.120969e+02
  1.248419e+01    8.109923e+02
  1.250697e+01    8.098269e+02
  1.252975e+01    8.085782e+02
  1.255253e+01    8.071196e+02
  1.257532e+01    8.056927e+02
  1.259810e+01    8.041631e+02
  1.262088e+01    8.025723e+02
  1.264367e+01    8.010122e+02
  1.266645e+01    7.994485e+02
  1.268923e+01    7.977672e+02
  1.271201e+01    7.959368e+02
  1.273480e+01    7.941487e+02
  1.275758e+01    7.923929e+02
  1.278036e+01    7.906292e+02
  1.280315e+01    7.889185e+02
  1.282593e+01    7.870397e+02
  1.284871e+01    7.851815e+02
  1.287149e+01    7.833917e+02
  1.289428e+01    7.815726e+02
  1.291706e+01    7.796780e+02
  1.293984e+01    7.777676e+02
  1.296263e+01    7.758664e+02
  1.298541e+01    7.738810e+02
  1.300819e+01    7.719713e+02
  1.303097e+01    7.699962e+02
  1.305376e+01    7.680219e+02
  1.307654e+01    7.660833e+02
  1.309932e+01    7.641331e+02
  1.312210e+01    7.623409e+02
  1.314489e+01    7.604835e+02
  1.316767e+01    7.585356e+02
  1.319045e+01    7.566758e+02
  1.321324e+01    7.548149e+02
  1.323602e+01    7.528693e+02
  1.325880e+01    7.510987e+02
  1.328158e+01    7.492675e+02
  1.330437e+01    7.475386e+02
  1.332715e+01    7.458464e+02
  1.334993e+01    7.440651e+02
  1.337272e+01    7.423422e+02
  1.339550e+01    7.407936e+02
  1.341828e+01    7.391360e+02
  1.344106e+01    7.374479e+02
  1.346385e+01    7.359161e+02
  1.348663e+01    7.343961e+02
  1.350941e+01    7.328930e+02
  1.353219e+01    7.312935e+02
  1.355498e+01    7.296279e+02
  1.357776e+01    7.278506e+02
  1.360054e+01    7.262159e+02
  1.362333e+01    7.247044e+02
  1.364611e+01    7.232086e+02
  1.366889e+01    7.217050e+02
  1.369167e+01    7.203031e+02
  1.371446e+01    7.189425e+02
  1.373724e+01    7.175185e+02
  1.376002e+01    7.161779e+02
  1.378281e+01    7.148522e+02
  1.380559e+01    7.135276e+02
  1.382837e+01    7.122498e+02
  1.385115e+01    7.111091e+02
  1.387394e+01    7.099794e+02
  1.389672e+01    7.088366e+02
  1.391950e+01    7.077975e+02
  1.394229e+01    7.066758e+02
  1.396507e+01    7.054273e+02
  1.398785e+01    7.042197e+02
  1.401063e+01    7.030249e+02
  1.403342e+01    7.019857e+02
  1.405620e+01    7.008735e+02
  1.407898e+01    6.997130e+02
  1.410176e+01    6.987540e+02
  1.412455e+01    6.977402e+02
  1.414733e+01    6.967031e+02
  1.417011e+01    6.957174e+02
  1.419290e+01    6.947015e+02
  1.421568e+01    6.937615e+02
  1.423846e+01    6.927874e+02
  1.426124e+01    6.917999e+02
  1.428403e+01    6.908885e+02
  1.430681e+01    6.899780e+02
  1.432959e+01    6.889900e+02
  1.435238e+01    6.880021e+02
  1.437516e+01    6.870980e+02
  1.439794e+01    6.861992e+02
  1.442072e+01    6.852912e+02
  1.444351e+01    6.844266e+02
  1.446629e+01    6.834901e+02
  1.448907e+01    6.825911e+02
  1.451186e+01    6.817540e+02
  1.453464e+01    6.809886e+02
  1.455742e+01    6.802078e+02
  1.458020e+01    6.794210e+02
  1.460299e+01    6.786111e+02
  1.462577e+01    6.778033e+02
  1.464855e+01    6.770315e+02
  1.467133e+01    6.762084e+02
  1.469412e+01    6.753561e+02
  1.471690e+01    6.745007e+02
  1.473968e+01    6.736476e+02
  1.476247e+01    6.728206e+02
  1.478525e+01    6.719930e+02
  1.480803e+01    6.712344e+02
  1.483081e+01    6.704732e+02
  1.485360e+01    6.695942e+02
  1.487638e+01    6.687943e+02
  1.489916e+01    6.680977e+02
  1.492195e+01    6.673814e+02
  1.494473e+01    6.665865e+02
  1.496751e+01    6.657589e+02
  1.499029e+01    6.649724e+02
  1.501308e+01    6.641816e+02
  1.503586e+01    6.637192e+02
  1.505864e+01    6.628111e+02
  1.508142e+01    6.620446e+02
  1.510421e+01    6.611589e+02
  1.512699e+01    6.602543e+02
  1.514977e+01    6.594167e+02
  1.517256e+01    6.586169e+02
  1.519534e+01    6.578072e+02
  1.521812e+01    6.570114e+02
  1.524090e+01    6.561808e+02
  1.526369e+01    6.553214e+02
  1.528647e+01    6.545266e+02
  1.530925e+01    6.537153e+02
  1.533204e+01    6.528680e+02
  1.535482e+01    6.519902e+02
  1.537760e+01    6.511822e+02
  1.540038e+01    6.503813e+02
  1.542317e+01    6.496465e+02
  1.544595e+01    6.487619e+02
  1.546873e+01    6.477798e+02
  1.549152e+01    6.468670e+02
  1.551430e+01    6.460500e+02
  1.553708e+01    6.453156e+02
  1.555986e+01    6.444769e+02
  1.558265e+01    6.435561e+02
  1.560543e+01    6.426334e+02
  1.562821e+01    6.418313e+02
  1.565099e+01    6.410056e+02
  1.567378e+01    6.401752e+02
  1.569656e+01    6.393351e+02
  1.571934e+01    6.384854e+02
  1.574213e+01    6.376129e+02
  1.576491e+01    6.368411e+02
  1.578769e+01    6.360170e+02
  1.581047e+01    6.351866e+02
  1.583326e+01    6.342255e+02
  1.585604e+01    6.333577e+02
  1.587882e+01    6.325015e+02
  1.590161e+01    6.317419e+02
  1.592439e+01    6.309681e+02
  1.594717e+01    6.301914e+02
  1.596995e+01    6.293550e+02
  1.599274e+01    6.285780e+02
  1.601552e+01    6.278244e+02
  1.603830e+01    6.270638e+02
  1.606109e+01    6.262401e+02
  1.608387e+01    6.255548e+02
  1.610665e+01    6.248016e+02
  1.612943e+01    6.240581e+02
  1.615222e+01    6.233024e+02
  1.617500e+01    6.225483e+02
  1.619778e+01    6.218384e+02
  1.622056e+01    6.211246e+02
  1.624335e+01    6.204013e+02
  1.626613e+01    6.196953e+02
  1.628891e+01    6.189775e+02
  1.631170e+01    6.182197e+02
  1.633448e+01    6.174773e+02
  1.635726e+01    6.167509e+02
  1.638004e+01    6.160239e+02
  1.640283e+01    6.152743e+02
  1.642561e+01    6.144838e+02
  1.644839e+01    6.137314e+02
  1.647118e+01    6.130013e+02
  1.649396e+01    6.122728e+02
  1.651674e+01    6.115510e+02
  1.653952e+01    6.108259e+02
  1.656231e+01    6.100224e+02
  1.658509e+01    6.092125e+02
  1.660787e+01    6.085221e+02
  1.663065e+01    6.077806e+02
  1.665344e+01    6.069998e+02
  1.667622e+01    6.062510e+02
  1.669900e+01    6.054998e+02
  1.672179e+01    6.046704e+02
  1.674457e+01    6.038444e+02
  1.676735e+01    6.030132e+02
  1.679013e+01    6.021240e+02
  1.681292e+01    6.012051e+02
  1.683570e+01    6.003381e+02
  1.685848e+01    5.994478e+02
  1.688127e+01    5.985297e+02
  1.690405e+01    5.976046e+02
  1.692683e+01    5.967284e+02
  1.694961e+01    5.957322e+02
  1.697240e+01    5.947995e+02
  1.699518e+01    5.938555e+02
  1.701796e+01    5.929615e+02
  1.704075e+01    5.919596e+02
  1.706353e+01    5.909491e+02
  1.708631e+01    5.899048e+02
  1.710909e+01    5.888766e+02
  1.713188e+01    5.878372e+02
  1.715466e+01    5.867982e+02
  1.717744e+01    5.857401e+02
  1.720022e+01    5.846318e+02
  1.722301e+01    5.836907e+02
  1.724579e+01    5.826176e+02
  1.726857e+01    5.815983e+02
  1.729136e+01    5.806143e+02
  1.731414e+01    5.796337e+02
  1.733692e+01    5.785680e+02
  1.735970e+01    5.774418e+02
  1.738249e+01    5.763023e+02
  1.740527e+01    5.752651e+02
  1.742805e+01    5.742092e+02
  1.745084e+01    5.731525e+02
  1.747362e+01    5.721288e+02
  1.749640e+01    5.710736e+02
  1.751918e+01    5.700075e+02
  1.754197e+01    5.688915e+02
  1.756475e+01    5.678375e+02
  1.758753e+01    5.668744e+02
  1.761032e+01    5.658511e+02
  1.763310e+01    5.648229e+02
  1.765588e+01    5.637920e+02
  1.767866e+01    5.628307e+02
  1.770145e+01    5.618202e+02
  1.772423e+01    5.608491e+02
  1.774701e+01    5.599155e+02
  1.776979e+01    5.589249e+02
  1.779258e+01    5.579872e+02
  1.781536e+01    5.570825e+02
  1.783814e+01    5.561113e+02
  1.786093e+01    5.552212e+02
  1.788371e+01    5.543245e+02
  1.790649e+01    5.534376e+02
  1.792927e+01    5.525349e+02
  1.795206e+01    5.516205e+02
  1.797484e+01    5.507184e+02
  1.799762e+01    5.498386e+02
  1.802041e+01    5.490009e+02
  1.804319e+01    5.482141e+02
  1.806597e+01    5.473502e+02
  1.808875e+01    5.464995e+02
  1.811154e+01    5.456362e+02
  1.813432e+01    5.448325e+02
  1.815710e+01    5.440112e+02
  1.817989e+01    5.432505e+02
  1.820267e+01    5.424647e+02
  1.822545e+01    5.416229e+02
  1.824823e+01    5.407536e+02
  1.827102e+01    5.399426e+02
  1.829380e+01    5.391363e+02
  1.831658e+01    5.383737e+02
  1.833936e+01    5.375967e+02
  1.836215e+01    5.368078e+02
  1.838493e+01    5.360423e+02
  1.840771e+01    5.353127e+02
  1.843050e+01    5.346230e+02
  1.845328e+01    5.338895e+02
  1.847606e+01    5.331163e+02
  1.849884e+01    5.323657e+02
  1.852163e+01    5.316299e+02
  1.854441e+01    5.308929e+02
  1.856719e+01    5.301317e+02
  1.858998e+01    5.294753e+02
  1.861276e+01    5.288262e+02
  1.863554e+01    5.281270e+02
  1.865832e+01    5.274285e+02
  1.868111e+01    5.266852e+02
  1.870389e+01    5.260425e+02
  1.872667e+01    5.253539e+02
  1.874945e+01    5.247131e+02
  1.877224e+01    5.240121e+02
  1.879502e+01    5.233032e+02
  1.881780e+01    5.226662e+02
  1.884059e+01    5.220173e+02
  1.886337e+01    5.213962e+02
  1.888615e+01    5.207448e+02
  1.890893e+01    5.201116e+02
  1.893172e+01    5.194792e+02
  1.895450e+01    5.187521e+02
  1.897728e+01    5.180374e+02
  1.900007e+01    5.173213e+02
  1.902285e+01    5.167006e+02
  1.904563e+01    5.160701e+02
  1.906841e+01    5.154133e+02
  1.909120e+01    5.147623e+02
  1.911398e+01    5.140659e+02
  1.913676e+01    5.133579e+02
  1.915955e+01    5.126656e+02
  1.918233e+01    5.120063e+02
  1.920511e+01    5.114025e+02
  1.922789e+01    5.107303e+02
  1.925068e+01    5.100060e+02
  1.927346e+01    5.093640e+02
  1.929624e+01    5.086719e+02
  1.931902e+01    5.079709e+02
  1.934181e+01    5.072552e+02
  1.936459e+01    5.065760e+02
  1.938737e+01    5.058401e+02
  1.941016e+01    5.051968e+02
  1.943294e+01    5.045355e+02
  1.945572e+01    5.038326e+02
  1.947850e+01    5.031403e+02
  1.950129e+01    5.024234e+02
  1.952407e+01    5.017882e+02
  1.954685e+01    5.010979e+02
  1.956964e+01    5.004495e+02
  1.959242e+01    4.998108e+02
  1.961520e+01    4.991324e+02
  1.963798e+01    4.984862e+02
  1.966077e+01    4.978092e+02
  1.968355e+01    4.971423e+02
  1.970633e+01    4.963833e+02
  1.972912e+01    4.956422e+02
  1.975190e+01    4.949267e+02
  1.977468e+01    4.942395e+02
  1.979746e+01    4.935171e+02
  1.982025e+01    4.927859e+02
  1.984303e+01    4.920338e+02
  1.986581e+01    4.913383e+02
  1.988859e+01    4.906306e+02
  1.991138e+01    4.898864e+02
  1.993416e+01    4.891772e+02
  1.995694e+01    4.884311e+02
  1.997973e+01    4.876935e+02
  2.000251e+01    4.870019e+02
  2.002529e+01    4.862288e+02
  2.004807e+01    4.854669e+02
  2.007086e+01    4.846515e+02
  2.009364e+01    4.838929e+02
  2.011642e+01    4.831244e+02
  2.013921e+01    4.824132e+02
  2.016199e+01    4.816348e+02
  2.018477e+01    4.808514e+02
  2.020755e+01    4.800269e+02
  2.023034e+01    4.792957e+02
  2.025312e+01    4.784930e+02
  2.027590e+01    4.776764e+02
  2.029868e+01    4.768489e+02
  2.032147e+01    4.760513e+02
  2.034425e+01    4.752723e+02
  2.036703e+01    4.744663e+02
  2.038982e+01    4.736797e+02
  2.041260e+01    4.728896e+02
  2.043538e+01    4.721862e+02
  2.045816e+01    4.714146e+02
  2.048095e+01    4.705921e+02
  2.050373e+01    4.698590e+02
  2.052651e+01    4.691704e+02
  2.054930e+01    4.684719e+02
  2.057208e+01    4.677097e+02
  2.059486e+01    4.669154e+02
  2.061764e+01    4.661639e+02
  2.064043e+01    4.654345e+02
  2.066321e+01    4.646943e+02
  2.068599e+01    4.639987e+02
  2.070878e+01    4.632950e+02
  2.073156e+01    4.625594e+02
  2.075434e+01    4.617658e+02
  2.077712e+01    4.609991e+02
  2.079991e+01    4.602280e+02
  2.082269e+01    4.594388e+02
  2.084547e+01    4.587173e+02
  2.086825e+01    4.579425e+02
  2.089104e+01    4.572690e+02
  2.091382e+01    4.564844e+02
  2.093660e+01    4.557352e+02
  2.095939e+01    4.550009e+02
  2.098217e+01    4.542609e+02
  2.100495e+01    4.535270e+02
  2.102773e+01    4.527780e+02
  2.105052e+01    4.519242e+02
  2.107330e+01    4.511430e+02
  2.109608e+01    4.503842e+02
  2.111887e+01    4.496251e+02
  2.114165e+01    4.488824e+02
  2.116443e+01    4.481385e+02
  2.118721e+01    4.473482e+02
  2.121000e+01    4.466362e+02
  2.123278e+01    4.458889e+02
  2.125556e+01    4.451607e+02
  2.127835e+01    4.444116e+02
  2.130113e+01    4.436836e+02
  2.132391e+01    4.429627e+02
  2.134669e+01    4.421276e+02
  2.136948e+01    4.413462e+02
  2.139226e+01    4.406614e+02
  2.141504e+01    4.400925e+02
  2.143782e+01    4.396027e+02
  2.146061e+01    4.387124e+02
  2.148339e+01    4.379192e+02
  2.150617e+01    4.370722e+02
  2.152896e+01    4.362997e+02
  2.155174e+01    4.355652e+02
  2.157452e+01    4.347961e+02
  2.159730e+01    4.340445e+02
  2.162009e+01    4.332741e+02
  2.164287e+01    4.324819e+02
  2.166565e+01    4.317463e+02
  2.168844e+01    4.310243e+02
  2.171122e+01    4.303137e+02
  2.173400e+01    4.295802e+02
  2.175678e+01    4.288200e+02
  2.177957e+01    4.280192e+02
  2.180235e+01    4.273139e+02
  2.182513e+01    4.265789e+02
  2.184791e+01    4.258533e+02
  2.187070e+01    4.251323e+02
  2.189348e+01    4.244061e+02
  2.191626e+01    4.236888e+02
  2.193905e+01    4.229731e+02
  2.196183e+01    4.222220e+02
  2.198461e+01    4.214720e+02
  2.200739e+01    4.207676e+02
  2.203018e+01    4.200725e+02
  2.205296e+01    4.193378e+02
  2.207574e+01    4.186174e+02
  2.209853e+01    4.179009e+02
  2.212131e+01    4.171475e+02
  2.214409e+01    4.164596e+02
  2.216687e+01    4.157256e+02
  2.218966e+01    4.150735e+02
  2.221244e+01    4.143536e+02
  2.223522e+01    4.136538e+02
  2.225801e+01    4.129713e+02
  2.228079e+01    4.122631e+02
  2.230357e+01    4.115470e+02
  2.232635e+01    4.108165e+02
  2.234914e+01    4.100805e+02
  2.237192e+01    4.093956e+02
  2.239470e+01    4.086820e+02
  2.241748e+01    4.080165e+02
  2.244027e+01    4.073349e+02
  2.246305e+01    4.066496e+02
  2.248583e+01    4.059833e+02
  2.250862e+01    4.053168e+02
  2.253140e+01    4.046527e+02
  2.255418e+01    4.039709e+02
  2.257696e+01    4.032419e+02
  2.259975e+01    4.025490e+02
  2.262253e+01    4.018732e+02
  2.264531e+01    4.012232e+02
  2.266810e+01    4.005588e+02
  2.269088e+01    3.998722e+02
  2.271366e+01    3.992258e+02
  2.273644e+01    3.985929e+02
  2.275923e+01    3.979231e+02
  2.278201e+01    3.972662e+02
  2.280479e+01    3.966408e+02
  2.282758e+01    3.959504e+02
  2.285036e+01    3.953009e+02
  2.287314e+01    3.946642e+02
  2.289592e+01    3.940245e+02
  2.291871e+01    3.933346e+02
  2.294149e+01    3.926602e+02
  2.296427e+01    3.920196e+02
  2.298705e+01    3.913193e+02
  2.300984e+01    3.906552e+02
  2.303262e+01    3.900207e+02
  2.305540e+01    3.894207e+02
  2.307819e+01    3.887646e+02
  2.310097e+01    3.880733e+02
  2.312375e+01    3.873895e+02
  2.314653e+01    3.867440e+02
  2.316932e+01    3.860436e+02
  2.319210e+01    3.853701e+02
  2.321488e+01    3.847471e+02
  2.323767e+01    3.841129e+02
  2.326045e+01    3.834826e+02
  2.328323e+01    3.827850e+02
  2.330601e+01    3.821467e+02
  2.332880e+01    3.814535e+02
  2.335158e+01    3.808272e+02
  2.337436e+01    3.801732e+02
  2.339714e+01    3.795418e+02
  2.341993e+01    3.789658e+02
  2.344271e+01    3.783228e+02
  2.346549e+01    3.776048e+02
  2.348828e+01    3.769162e+02
  2.351106e+01    3.762505e+02
  2.353384e+01    3.756067e+02
  2.355662e+01    3.749841e+02
  2.357941e+01    3.743687e+02
  2.360219e+01    3.736959e+02
  2.362497e+01    3.730013e+02
  2.364776e+01    3.723740e+02
  2.367054e+01    3.717443e+02
  2.369332e+01    3.713593e+02
  2.371610e+01    3.707814e+02
  2.373889e+01    3.699728e+02
  2.376167e+01    3.692580e+02
  2.378445e+01    3.685392e+02
  2.380724e+01    3.678165e+02
  2.383002e+01    3.671120e+02
  2.385280e+01    3.664885e+02
  2.387558e+01    3.658201e+02
  2.389837e+01    3.651136e+02
  2.392115e+01    3.644317e+02
  2.394393e+01    3.637610e+02
  2.396671e+01    3.630734e+02
  2.398950e+01    3.623795e+02
  2.401228e+01    3.617290e+02
  2.403506e+01    3.610974e+02
  2.405785e+01    3.604508e+02
  2.408063e+01    3.598043e+02
  2.410341e+01    3.591494e+02
  2.412619e+01    3.584606e+02
  2.414898e+01    3.577886e+02
  2.417176e+01    3.571355e+02
  2.419454e+01    3.564532e+02
  2.421733e+01    3.557971e+02
  2.424011e+01    3.551483e+02
  2.426289e+01    3.544832e+02
  2.428567e+01    3.538044e+02
  2.430846e+01    3.531344e+02
  2.433124e+01    3.525093e+02
  2.435402e+01    3.518496e+02
  2.437681e+01    3.511433e+02
  2.439959e+01    3.504791e+02
  2.442237e+01    3.497815e+02
  2.444515e+01    3.491392e+02
  2.446794e+01    3.484457e+02
  2.449072e+01    3.477735e+02
  2.451350e+01    3.471108e+02
  2.453628e+01    3.463753e+02
  2.455907e+01    3.457462e+02
  2.458185e+01    3.450877e+02
  2.460463e+01    3.444268e+02
  2.462742e+01    3.437540e+02
  2.465020e+01    3.430702e+02
  2.467298e+01    3.423792e+02
  2.469576e+01    3.417415e+02
  2.471855e+01    3.410497e+02
  2.474133e+01    3.403576e+02
  2.476411e+01    3.396785e+02
  2.478690e+01    3.390479e+02
  2.480968e+01    3.383510e+02
  2.483246e+01    3.377337e+02
  2.485524e+01    3.370331e+02
  2.487803e+01    3.363275e+02
  2.490081e+01    3.356687e+02
  2.492359e+01    3.349781e+02
  2.494637e+01    3.343194e+02
  2.496916e+01    3.336408e+02
  2.499194e+01    3.329778e+02
  2.501472e+01    3.323058e+02
  2.503751e+01    3.316194e+02
  2.506029e+01    3.309517e+02
  2.508307e+01    3.302670e+02
  2.510585e+01    3.296037e+02
  2.512864e+01    3.289559e+02
  2.515142e+01    3.282221e+02
  2.517420e+01    3.275182e+02
  2.519699e+01    3.268751e+02
  2.521977e+01    3.261957e+02
  2.524255e+01    3.255836e+02
  2.526533e+01    3.249333e+02
  2.528812e+01    3.242405e+02
  2.531090e+01    3.235733e+02
  2.533368e+01    3.229554e+02
  2.535647e+01    3.223633e+02
  2.537925e+01    3.217274e+02
  2.540203e+01    3.211185e+02
  2.542481e+01    3.204662e+02
  2.544760e+01    3.198340e+02
  2.547038e+01    3.191880e+02
  2.549316e+01    3.185715e+02
  2.551594e+01    3.179250e+02
  2.553873e+01    3.172502e+02
  2.556151e+01    3.166479e+02
  2.558429e+01    3.160191e+02
  2.560708e+01    3.153772e+02
  2.562986e+01    3.146888e+02
  2.565264e+01    3.140547e+02
  2.567542e+01    3.134280e+02
  2.569821e+01    3.127935e+02
  2.572099e+01    3.122018e+02
  2.574377e+01    3.115609e+02
  2.576656e+01    3.109718e+02
  2.578934e+01    3.103103e+02
  2.581212e+01    3.096672e+02
  2.583490e+01    3.090856e+02
  2.585769e+01    3.084384e+02
  2.588047e+01    3.078198e+02
  2.590325e+01    3.071850e+02
  2.592604e+01    3.065307e+02
  2.594882e+01    3.059060e+02
  2.597160e+01    3.053076e+02
  2.599438e+01    3.046926e+02
  2.601717e+01    3.040998e+02
  2.603995e+01    3.034762e+02
  2.606273e+01    3.028329e+02
  2.608551e+01    3.022004e+02
  2.610830e+01    3.015836e+02
  2.613108e+01    3.009872e+02
  2.615386e+01    3.003475e+02
  2.617665e+01    2.996950e+02
  2.619943e+01    2.990993e+02
  2.622221e+01    2.984798e+02
  2.624499e+01    2.978921e+02
  2.626778e+01    2.972915e+02
  2.629056e+01    2.966829e+02
  2.631334e+01    2.961048e+02
  2.633613e+01    2.954717e+02
  2.635891e+01    2.948292e+02
  2.638169e+01    2.942052e+02
  2.640447e+01    2.935616e+02
  2.642726e+01    2.929701e+02
  2.645004e+01    2.923377e+02
  2.647282e+01    2.917297e+02
  2.649560e+01    2.911614e+02
  2.651839e+01    2.904922e+02
  2.654117e+01    2.898752e+02
  2.656395e+01    2.892654e+02
  2.658674e+01    2.886759e+02
  2.660952e+01    2.880798e+02
  2.663230e+01    2.874445e+02
  2.665508e+01    2.868163e+02
  2.667787e+01    2.862608e+02
  2.670065e+01    2.856127e+02
  2.672343e+01    2.850222e+02
  2.674622e+01    2.844262e+02
  2.676900e+01    2.838250e+02
  2.679178e+01    2.832156e+02
  2.681456e+01    2.825817e+02
  2.683735e+01    2.819987e+02
  2.686013e+01    2.813633e+02
  2.688291e+01    2.807120e+02
  2.690570e+01    2.801216e+02
  2.692848e+01    2.795465e+02
  2.695126e+01    2.789523e+02
  2.697404e+01    2.783735e+02
  2.699683e+01    2.777507e+02
  2.701961e+01    2.771140e+02
  2.704239e+01    2.764919e+02
  2.706517e+01    2.758734e+02
  2.708796e+01    2.752842e+02
  2.711074e+01    2.746128e+02
  2.713352e+01    2.739955e+02
  2.715631e+01    2.733983e+02
  2.717909e+01    2.727910e+02
  2.720187e+01    2.724719e+02
  2.722465e+01    2.727833e+02
  2.724744e+01    2.726655e+02
  2.727022e+01    2.724488e+02
  2.729300e+01    2.721626e+02
  2.731579e+01    2.718160e+02
  2.733857e+01    2.714110e+02
  2.736135e+01    2.710263e+02
  2.738413e+01    2.706293e+02
  2.740692e+01    2.701083e+02
  2.742970e+01    2.691904e+02
  2.745248e+01    2.683893e+02
  2.747527e+01    2.676447e+02
  2.749805e+01    2.669694e+02
  2.752083e+01    2.662761e+02
  2.754361e+01    2.655660e+02
  2.756640e+01    2.648580e+02
  2.758918e+01    2.641002e+02
  2.761196e+01    2.626742e+02
  2.763474e+01    2.614719e+02
  2.765753e+01    2.603744e+02
  2.768031e+01    2.593582e+02
  2.770309e+01    2.583941e+02
  2.772588e+01    2.574290e+02
  2.774866e+01    2.564934e+02
  2.777144e+01    2.555700e+02
  2.779422e+01    2.552226e+02
  2.781701e+01    2.553813e+02
  2.783979e+01    2.551223e+02
  2.786257e+01    2.547223e+02
  2.788536e+01    2.542893e+02
  2.790814e+01    2.538388e+02
  2.793092e+01    2.533152e+02
  2.795370e+01    2.528284e+02
  2.797649e+01    2.523151e+02
  2.799927e+01    2.518121e+02
  2.802205e+01    2.512849e+02
  2.804483e+01    2.507469e+02
  2.806762e+01    2.502776e+02
  2.809040e+01    2.497380e+02
  2.811318e+01    2.492090e+02
  2.813597e+01    2.486517e+02
  2.815875e+01    2.481046e+02
  2.818153e+01    2.475498e+02
  2.820431e+01    2.469558e+02
  2.822710e+01    2.464143e+02
  2.824988e+01    2.459026e+02
  2.827266e+01    2.453505e+02
  2.829545e+01    2.447767e+02
  2.831823e+01    2.442374e+02
  2.834101e+01    2.436733e+02
  2.836379e+01    2.430863e+02
  2.838658e+01    2.425494e+02
  2.840936e+01    2.420391e+02
  2.843214e+01    2.414564e+02
  2.845493e+01    2.408421e+02
  2.847771e+01    2.402843e+02
  2.850049e+01    2.397315e+02
  2.852327e+01    2.392093e+02
  2.854606e+01    2.386300e+02
  2.856884e+01    2.380907e+02
  2.859162e+01    2.375142e+02
  2.861440e+01    2.369713e+02
  2.863719e+01    2.364212e+02
  2.865997e+01    2.358696e+02
  2.868275e+01    2.353269e+02
  2.870554e+01    2.347556e+02
  2.872832e+01    2.342115e+02
  2.875110e+01    2.336462e+02
  2.877388e+01    2.330816e+02
  2.879667e+01    2.325039e+02
  2.881945e+01    2.319325e+02
  2.884223e+01    2.313402e+02
  2.886502e+01    2.307553e+02
  2.888780e+01    2.301963e+02
  2.891058e+01    2.296439e+02
  2.893336e+01    2.290858e+02
  2.895615e+01    2.285569e+02
  2.897893e+01    2.280051e+02
  2.900171e+01    2.274729e+02
  2.902450e+01    2.269052e+02
  2.904728e+01    2.262859e+02
  2.907006e+01    2.257456e+02
  2.909284e+01    2.252015e+02
  2.911563e+01    2.246819e+02
  2.913841e+01    2.241465e+02
  2.916119e+01    2.235218e+02
  2.918397e+01    2.229691e+02
  2.920676e+01    2.224178e+02
  2.922954e+01    2.218231e+02
  2.925232e+01    2.213001e+02
  2.927511e+01    2.207663e+02
  2.929789e+01    2.201844e+02
  2.932067e+01    2.196496e+02
  2.934345e+01    2.190903e+02
  2.936624e+01    2.185359e+02
  2.938902e+01    2.179815e+02
  2.941180e+01    2.174347e+02
  2.943459e+01    2.168887e+02
  2.945737e+01    2.163765e+02
  2.948015e+01    2.158270e+02
  2.950293e+01    2.153220e+02
  2.952572e+01    2.146800e+02
  2.954850e+01    2.141732e+02
  2.957128e+01    2.136354e+02
  2.959407e+01    2.131146e+02
  2.961685e+01    2.125861e+02
  2.963963e+01    2.120475e+02
  2.966241e+01    2.115408e+02
  2.968520e+01    2.109467e+02
  2.970798e+01    2.104515e+02
  2.973076e+01    2.098761e+02
  2.975354e+01    2.093866e+02
  2.977633e+01    2.088185e+02
  2.979911e+01    2.082831e+02
  2.982189e+01    2.078052e+02
  2.984468e+01    2.072789e+02
  2.986746e+01    2.067388e+02
  2.989024e+01    2.062172e+02
  2.991302e+01    2.056491e+02
  2.993581e+01    2.051005e+02
  2.995859e+01    2.046133e+02
  2.998137e+01    2.040699e+02
  3.000416e+01    2.035286e+02
  3.002694e+01    2.030004e+02
  3.004972e+01    2.025067e+02
  3.007250e+01    2.019805e+02
  3.009529e+01    2.014243e+02
  3.011807e+01    2.009653e+02
  3.014085e+01    2.004139e+02
  3.016363e+01    1.999216e+02
  3.018642e+01    1.993802e+02
  3.020920e+01    1.988895e+02
  3.023198e+01    1.984245e+02
  3.025477e+01    1.978594e+02
  3.027755e+01    1.973579e+02
  3.030033e+01    1.968077e+02
  3.032311e+01    1.963141e+02
  3.034590e+01    1.958109e+02
  3.036868e+01    1.952522e+02
  3.039146e+01    1.947875e+02
  3.041425e+01    1.943133e+02
  3.043703e+01    1.937720e+02
  3.045981e+01    1.932760e+02
  3.048259e+01    1.927716e+02
  3.050538e+01    1.922548e+02
  3.052816e+01    1.917665e+02
  3.055094e+01    1.912807e+02
  3.057373e+01    1.906848e+02
  3.059651e+01    1.902488e+02
  3.061929e+01    1.897015e+02
  3.064207e+01    1.892430e+02
  3.066486e+01    1.886680e+02
  3.068764e+01    1.882761e+02
  3.071042e+01    1.877991e+02
  3.073320e+01    1.873008e+02
  3.075599e+01    1.867416e+02
  3.077877e+01    1.861686e+02
  3.080155e+01    1.857375e+02
  3.082434e+01    1.852115e+02
  3.084712e+01    1.847496e+02
  3.086990e+01    1.842350e+02
  3.089268e+01    1.836922e+02
  3.091547e+01    1.831565e+02
  3.093825e+01    1.827961e+02
  3.096103e+01    1.822610e+02
  3.098382e+01    1.817559e+02
  3.100660e+01    1.813293e+02
  3.102938e+01    1.807934e+02
  3.105216e+01    1.802698e+02
  3.107495e+01    1.797711e+02
  3.109773e+01    1.792340e+02
  3.112051e+01    1.787700e+02
  3.114330e+01    1.783359e+02
  3.116608e+01    1.778224e+02
  3.118886e+01    1.773786e+02
  3.121164e+01    1.768882e+02
  3.123443e+01    1.764378e+02
  3.125721e+01    1.759753e+02
  3.127999e+01    1.754801e+02
  3.130277e+01    1.749986e+02
  3.132556e+01    1.744665e+02
  3.134834e+01    1.740596e+02
  3.137112e+01    1.735657e+02
  3.139391e+01    1.730660e+02
  3.141669e+01    1.725819e+02
  3.143947e+01    1.720585e+02
  3.146225e+01    1.716688e+02
  3.148504e+01    1.712751e+02
  3.150782e+01    1.705209e+02
  3.153060e+01    1.702492e+02
  3.155339e+01    1.698217e+02
  3.157617e+01    1.693985e+02
  3.159895e+01    1.688380e+02
  3.162173e+01    1.683647e+02
  3.164452e+01    1.679865e+02
  3.166730e+01    1.674537e+02
  3.169008e+01    1.669663e+02
  3.171286e+01    1.666371e+02
  3.173565e+01    1.661450e+02
  3.175843e+01    1.655550e+02
  3.178121e+01    1.651376e+02
  3.180400e+01    1.646413e+02
  3.182678e+01    1.642498e+02
  3.184956e+01    1.637760e+02
  3.187234e+01    1.633219e+02
  3.189513e+01    1.628089e+02
  3.191791e+01    1.623394e+02
  3.194069e+01    1.619216e+02
  3.196348e+01    1.614264e+02
  3.198626e+01    1.609450e+02
  3.200904e+01    1.604724e+02
  3.203182e+01    1.599802e+02
  3.205461e+01    1.594960e+02
  3.207739e+01    1.591019e+02
  3.210017e+01    1.585613e+02
  3.212296e+01    1.581584e+02
  3.214574e+01    1.576476e+02
  3.216852e+01    1.570549e+02
  3.219130e+01    1.565568e+02
  3.221409e+01    1.561481e+02
  3.223687e+01    1.555565e+02
  3.225965e+01    1.553264e+02
  3.228243e+01    1.547271e+02
  3.230522e+01    1.542097e+02
  3.232800e+01    1.537358e+02
  3.235078e+01    1.532535e+02
  3.237357e+01    1.526533e+02
  3.239635e+01    1.522014e+02
  3.241913e+01    1.517309e+02
  3.244191e+01    1.511550e+02
  3.246470e+01    1.506838e+02
  3.248748e+01    1.502239e+02
  3.251026e+01    1.497599e+02
  3.253305e+01    1.493722e+02
  3.255583e+01    1.488219e+02
  3.257861e+01    1.481888e+02
  3.260139e+01    1.476084e+02
  3.262418e+01    1.471958e+02
  3.264696e+01    1.465470e+02
  3.266974e+01    1.459889e+02
  3.269253e+01    1.456413e+02
  3.271531e+01    1.450522e+02
  3.273809e+01    1.444352e+02
  3.276087e+01    1.438422e+02
  3.278366e+01    1.435443e+02
  3.280644e+01    1.428827e+02
  3.282922e+01    1.422067e+02
  3.285200e+01    1.418392e+02
  3.287479e+01    1.413925e+02
  3.289757e+01    1.408895e+02
  3.292035e+01    1.403489e+02
  3.294314e+01    1.397603e+02
  3.296592e+01    1.391851e+02
  3.298870e+01    1.386125e+02
  3.301148e+01    1.382475e+02
  3.303427e+01    1.376995e+02
  3.305705e+01    1.369593e+02
  3.307983e+01    1.363764e+02
  3.310262e+01    1.359238e+02
  3.312540e+01    1.353883e+02
  3.314818e+01    1.347869e+02
  3.317096e+01    1.345954e+02
  3.319375e+01    1.339591e+02
  3.321653e+01    1.332963e+02
  3.323931e+01    1.328335e+02
  3.326209e+01    1.321268e+02
  3.328488e+01    1.315024e+02
  3.330766e+01    1.311985e+02
  3.333044e+01    1.307103e+02
  3.335323e+01    1.302546e+02
  3.337601e+01    1.295192e+02
  3.339879e+01    1.292008e+02
  3.342157e+01    1.295904e+02
  3.344436e+01    1.277707e+02
  3.346714e+01    1.272955e+02
  3.348992e+01    1.261105e+02
  3.351271e+01    1.254873e+02
  3.353549e+01    0.000000e+00
  3.355827e+01    0.000000e+00
  3.358105e+01    0.000000e+00
  3.360384e+01    0.000000e+00
  3.362662e+01    0.000000e+00
  3.364940e+01    0.000000e+00
  3.367219e+01    0.000000e+00
  3.369497e+01    0.000000e+00
  3.371775e+01    0.000000e+00
