# == pyFAI calibration ==
# Distance Sample to Detector: 0.21311058206280517 m
# PONI: 2.037e-01, 1.993e-01 m
# Rotations: -0.005459 0.000134 0.000000 rad
# 
# == Fit2d calibration ==
# Distance Sample-beamCenter: 213.114 mm
# Center: x=1002.134, y=1018.730 pix
# Tilt: 0.313 deg  TiltPlanRot: 1.411 deg
# 
# Detector Perkin detector	 PixelSize= 2.000e-04, 2.000e-04 m
#    Detector has a mask: False 
#    Detector has a dark current: False 
#    detector has a flat field: False 
# 
# Wavelength: 1.675e-11 m
# Mask applied: provided
# Dark current applied: False
# Flat field applied: False
# Polarization factor: None
# Normalization factor: 1.0
# --> data/chi_bkgsub_false/C_Tatania2-41.5-average.chi
#        q_A^-1             I 
  2.199784e-02    1.225163e+02
  4.478064e-02    1.231502e+02
  6.756343e-02    1.236962e+02
  9.034623e-02    1.247287e+02
  1.131290e-01    1.266212e+02
  1.359118e-01    1.287788e+02
  1.586946e-01    1.317536e+02
  1.814774e-01    1.361210e+02
  2.042602e-01    1.420134e+02
  2.270430e-01    1.529428e+02
  2.498258e-01    1.732883e+02
  2.726086e-01    2.099337e+02
  2.953914e-01    4.040566e+02
  3.181742e-01    6.359250e+02
  3.409570e-01    1.005645e+03
  3.637398e-01    1.405711e+03
  3.865226e-01    1.144037e+03
  4.093054e-01    8.538921e+02
  4.320881e-01    6.893558e+02
  4.548709e-01    6.155101e+02
  4.776537e-01    6.620607e+02
  5.004365e-01    7.071277e+02
  5.232193e-01    7.426503e+02
  5.460021e-01    7.903484e+02
  5.687849e-01    8.523167e+02
  5.915677e-01    9.114014e+02
  6.143505e-01    1.001956e+03
  6.371333e-01    1.123198e+03
  6.599161e-01    1.241317e+03
  6.826989e-01    1.363240e+03
  7.054817e-01    1.467649e+03
  7.282645e-01    1.550700e+03
  7.510473e-01    1.615278e+03
  7.738301e-01    1.661798e+03
  7.966129e-01    1.704014e+03
  8.193956e-01    1.747497e+03
  8.421784e-01    1.790511e+03
  8.649612e-01    1.836915e+03
  8.877440e-01    1.887717e+03
  9.105268e-01    1.939285e+03
  9.333096e-01    1.995690e+03
  9.560924e-01    2.056941e+03
  9.788752e-01    2.119830e+03
  1.001658e+00    2.188988e+03
  1.024441e+00    2.262054e+03
  1.047224e+00    2.339065e+03
  1.070006e+00    2.423658e+03
  1.092789e+00    2.513067e+03
  1.115572e+00    2.607028e+03
  1.138355e+00    2.710382e+03
  1.161138e+00    2.817368e+03
  1.183920e+00    2.930729e+03
  1.206703e+00    3.053459e+03
  1.229486e+00    3.178041e+03
  1.252269e+00    3.312050e+03
  1.275052e+00    3.455251e+03
  1.297834e+00    3.592299e+03
  1.320617e+00    3.739510e+03
  1.343400e+00    3.892978e+03
  1.366183e+00    4.044075e+03
  1.388966e+00    4.201392e+03
  1.411748e+00    4.357708e+03
  1.434531e+00    4.512083e+03
  1.457314e+00    4.665153e+03
  1.480097e+00    4.804248e+03
  1.502879e+00    4.938796e+03
  1.525662e+00    5.066583e+03
  1.548445e+00    5.177699e+03
  1.571228e+00    5.275159e+03
  1.594011e+00    5.358979e+03
  1.616793e+00    5.431335e+03
  1.639576e+00    5.482789e+03
  1.662359e+00    5.517312e+03
  1.685142e+00    5.544884e+03
  1.707925e+00    5.554092e+03
  1.730707e+00    5.551122e+03
  1.753490e+00    5.541956e+03
  1.776273e+00    5.519479e+03
  1.799056e+00    5.481857e+03
  1.821839e+00    5.426264e+03
  1.844621e+00    5.367910e+03
  1.867404e+00    5.313858e+03
  1.890187e+00    5.248768e+03
  1.912970e+00    5.186595e+03
  1.935753e+00    5.128758e+03
  1.958535e+00    5.071624e+03
  1.981318e+00    5.013968e+03
  2.004101e+00    4.957149e+03
  2.026884e+00    4.903640e+03
  2.049667e+00    4.846428e+03
  2.072449e+00    4.782152e+03
  2.095232e+00    4.723771e+03
  2.118015e+00    4.665988e+03
  2.140798e+00    4.608451e+03
  2.163581e+00    4.539841e+03
  2.186363e+00    4.454850e+03
  2.209146e+00    4.364252e+03
  2.231929e+00    4.266405e+03
  2.254712e+00    4.169508e+03
  2.277494e+00    4.076205e+03
  2.300277e+00    3.979177e+03
  2.323060e+00    3.878539e+03
  2.345843e+00    3.780232e+03
  2.368626e+00    3.680073e+03
  2.391408e+00    3.582580e+03
  2.414191e+00    3.484971e+03
  2.436974e+00    3.393084e+03
  2.459757e+00    3.310545e+03
  2.482540e+00    3.226451e+03
  2.505322e+00    3.136675e+03
  2.528105e+00    3.045444e+03
  2.550888e+00    2.959927e+03
  2.573671e+00    2.883051e+03
  2.596454e+00    2.816360e+03
  2.619236e+00    2.761140e+03
  2.642019e+00    2.712416e+03
  2.664802e+00    2.666958e+03
  2.687585e+00    2.630542e+03
  2.710368e+00    2.602563e+03
  2.733150e+00    2.586400e+03
  2.755933e+00    2.576014e+03
  2.778716e+00    2.572854e+03
  2.801499e+00    2.577945e+03
  2.824282e+00    2.583665e+03
  2.847064e+00    2.589911e+03
  2.869847e+00    2.597998e+03
  2.892630e+00    2.606498e+03
  2.915413e+00    2.611574e+03
  2.938196e+00    2.614611e+03
  2.960978e+00    2.614350e+03
  2.983761e+00    2.611730e+03
  3.006544e+00    2.607599e+03
  3.029327e+00    2.601851e+03
  3.052110e+00    2.594468e+03
  3.074892e+00    2.583055e+03
  3.097675e+00    2.569609e+03
  3.120458e+00    2.556624e+03
  3.143241e+00    2.544177e+03
  3.166023e+00    2.531484e+03
  3.188806e+00    2.518088e+03
  3.211589e+00    2.503799e+03
  3.234372e+00    2.489976e+03
  3.257155e+00    2.477115e+03
  3.279937e+00    2.466170e+03
  3.302720e+00    2.454402e+03
  3.325503e+00    2.441806e+03
  3.348286e+00    2.429226e+03
  3.371069e+00    2.417285e+03
  3.393851e+00    2.408109e+03
  3.416634e+00    2.400641e+03
  3.439417e+00    2.395021e+03
  3.462200e+00    2.395646e+03
  3.484983e+00    2.400949e+03
  3.507765e+00    2.404250e+03
  3.530548e+00    2.406718e+03
  3.553331e+00    2.405119e+03
  3.576114e+00    2.401774e+03
  3.598897e+00    2.400370e+03
  3.621679e+00    2.403475e+03
  3.644462e+00    2.412533e+03
  3.667245e+00    2.421204e+03
  3.690028e+00    2.429806e+03
  3.712811e+00    2.438904e+03
  3.735593e+00    2.449250e+03
  3.758376e+00    2.459335e+03
  3.781159e+00    2.468557e+03
  3.803942e+00    2.478730e+03
  3.826725e+00    2.489048e+03
  3.849507e+00    2.498475e+03
  3.872290e+00    2.508688e+03
  3.895073e+00    2.522419e+03
  3.917856e+00    2.533273e+03
  3.940638e+00    2.540489e+03
  3.963421e+00    2.550958e+03
  3.986204e+00    2.562089e+03
  4.008987e+00    2.572464e+03
  4.031770e+00    2.582523e+03
  4.054552e+00    2.594788e+03
  4.077335e+00    2.610061e+03
  4.100118e+00    2.618981e+03
  4.122901e+00    2.629435e+03
  4.145684e+00    2.637700e+03
  4.168466e+00    2.641615e+03
  4.191249e+00    2.642419e+03
  4.214032e+00    2.642927e+03
  4.236815e+00    2.646742e+03
  4.259598e+00    2.645375e+03
  4.282380e+00    2.636715e+03
  4.305163e+00    2.632247e+03
  4.327946e+00    2.626871e+03
  4.350729e+00    2.620353e+03
  4.373512e+00    2.612747e+03
  4.396294e+00    2.604794e+03
  4.419077e+00    2.595425e+03
  4.441860e+00    2.583477e+03
  4.464643e+00    2.572960e+03
  4.487426e+00    2.569129e+03
  4.510208e+00    2.553183e+03
  4.532991e+00    2.533893e+03
  4.555774e+00    2.519208e+03
  4.578557e+00    2.504335e+03
  4.601340e+00    2.488175e+03
  4.624122e+00    2.471023e+03
  4.646905e+00    2.456875e+03
  4.669688e+00    2.444922e+03
  4.692471e+00    2.419930e+03
  4.715253e+00    2.400436e+03
  4.738036e+00    2.383572e+03
  4.760819e+00    2.367100e+03
  4.783602e+00    2.350351e+03
  4.806385e+00    2.334445e+03
  4.829167e+00    2.324498e+03
  4.851950e+00    2.308974e+03
  4.874733e+00    2.291361e+03
  4.897516e+00    2.279766e+03
  4.920299e+00    2.269329e+03
  4.943081e+00    2.259697e+03
  4.965864e+00    2.249257e+03
  4.988647e+00    2.239237e+03
  5.011430e+00    2.229885e+03
  5.034213e+00    2.212106e+03
  5.056995e+00    2.199544e+03
  5.079778e+00    2.193098e+03
  5.102561e+00    2.176786e+03
  5.125344e+00    2.161867e+03
  5.148127e+00    2.149642e+03
  5.170909e+00    2.137251e+03
  5.193692e+00    2.123430e+03
  5.216475e+00    2.109632e+03
  5.239258e+00    2.098831e+03
  5.262041e+00    2.084935e+03
  5.284823e+00    2.064312e+03
  5.307606e+00    2.047869e+03
  5.330389e+00    2.031562e+03
  5.353172e+00    2.014158e+03
  5.375955e+00    1.995392e+03
  5.398737e+00    1.976410e+03
  5.421520e+00    1.959928e+03
  5.444303e+00    1.935571e+03
  5.467086e+00    1.911943e+03
  5.489869e+00    1.889973e+03
  5.512651e+00    1.868430e+03
  5.535434e+00    1.847868e+03
  5.558217e+00    1.828356e+03
  5.581000e+00    1.811429e+03
  5.603782e+00    1.792858e+03
  5.626565e+00    1.771014e+03
  5.649348e+00    1.753436e+03
  5.672131e+00    1.737179e+03
  5.694914e+00    1.717070e+03
  5.717696e+00    1.700646e+03
  5.740479e+00    1.686365e+03
  5.763262e+00    1.672775e+03
  5.786045e+00    1.659875e+03
  5.808828e+00    1.648610e+03
  5.831610e+00    1.639949e+03
  5.854393e+00    1.627408e+03
  5.877176e+00    1.614789e+03
  5.899959e+00    1.605031e+03
  5.922742e+00    1.596072e+03
  5.945524e+00    1.587189e+03
  5.968307e+00    1.579061e+03
  5.991090e+00    1.573349e+03
  6.013873e+00    1.566740e+03
  6.036656e+00    1.556620e+03
  6.059438e+00    1.550891e+03
  6.082221e+00    1.545932e+03
  6.105004e+00    1.536307e+03
  6.127787e+00    1.528676e+03
  6.150570e+00    1.522401e+03
  6.173352e+00    1.517323e+03
  6.196135e+00    1.509225e+03
  6.218918e+00    1.501435e+03
  6.241701e+00    1.495961e+03
  6.264484e+00    1.488334e+03
  6.287266e+00    1.480389e+03
  6.310049e+00    1.473693e+03
  6.332832e+00    1.467261e+03
  6.355615e+00    1.460375e+03
  6.378397e+00    1.453251e+03
  6.401180e+00    1.447640e+03
  6.423963e+00    1.441762e+03
  6.446746e+00    1.433096e+03
  6.469529e+00    1.426011e+03
  6.492311e+00    1.419025e+03
  6.515094e+00    1.411748e+03
  6.537877e+00    1.404449e+03
  6.560660e+00    1.397303e+03
  6.583443e+00    1.390849e+03
  6.606225e+00    1.382161e+03
  6.629008e+00    1.373971e+03
  6.651791e+00    1.367836e+03
  6.674574e+00    1.360322e+03
  6.697357e+00    1.352473e+03
  6.720139e+00    1.345724e+03
  6.742922e+00    1.339719e+03
  6.765705e+00    1.332750e+03
  6.788488e+00    1.325528e+03
  6.811271e+00    1.319288e+03
  6.834053e+00    1.313109e+03
  6.856836e+00    1.305729e+03
  6.879619e+00    1.299006e+03
  6.902402e+00    1.292672e+03
  6.925185e+00    1.286537e+03
  6.947967e+00    1.280453e+03
  6.970750e+00    1.275237e+03
  6.993533e+00    1.270634e+03
  7.016316e+00    1.265144e+03
  7.039099e+00    1.259936e+03
  7.061881e+00    1.255221e+03
  7.084664e+00    1.250691e+03
  7.107447e+00    1.246169e+03
  7.130230e+00    1.242191e+03
  7.153013e+00    1.238732e+03
  7.175795e+00    1.235329e+03
  7.198578e+00    1.231978e+03
  7.221361e+00    1.229189e+03
  7.244144e+00    1.227024e+03
  7.266926e+00    1.225127e+03
  7.289709e+00    1.223530e+03
  7.312492e+00    1.222441e+03
  7.335275e+00    1.221786e+03
  7.358058e+00    1.221320e+03
  7.380840e+00    1.221082e+03
  7.403623e+00    1.220790e+03
  7.426406e+00    1.220541e+03
  7.449189e+00    1.220787e+03
  7.471972e+00    1.221657e+03
  7.494754e+00    1.222866e+03
  7.517537e+00    1.224071e+03
  7.540320e+00    1.225740e+03
  7.563103e+00    1.227347e+03
  7.585886e+00    1.229117e+03
  7.608668e+00    1.230619e+03
  7.631451e+00    1.232494e+03
  7.654234e+00    1.234490e+03
  7.677017e+00    1.236070e+03
  7.699800e+00    1.237592e+03
  7.722582e+00    1.239224e+03
  7.745365e+00    1.240627e+03
  7.768148e+00    1.241984e+03
  7.790931e+00    1.243381e+03
  7.813714e+00    1.244639e+03
  7.836496e+00    1.246057e+03
  7.859279e+00    1.247140e+03
  7.882062e+00    1.247632e+03
  7.904845e+00    1.247682e+03
  7.927628e+00    1.247209e+03
  7.950410e+00    1.246718e+03
  7.973193e+00    1.246052e+03
  7.995976e+00    1.245046e+03
  8.018759e+00    1.243617e+03
  8.041541e+00    1.242056e+03
  8.064324e+00    1.240091e+03
  8.087107e+00    1.237513e+03
  8.109890e+00    1.235067e+03
  8.132673e+00    1.232727e+03
  8.155455e+00    1.229523e+03
  8.178238e+00    1.226233e+03
  8.201021e+00    1.223252e+03
  8.223804e+00    1.220209e+03
  8.246587e+00    1.217036e+03
  8.269369e+00    1.213949e+03
  8.292152e+00    1.210791e+03
  8.314935e+00    1.207269e+03
  8.337718e+00    1.203570e+03
  8.360501e+00    1.200042e+03
  8.383283e+00    1.196650e+03
  8.406066e+00    1.193365e+03
  8.428849e+00    1.189757e+03
  8.451632e+00    1.186093e+03
  8.474415e+00    1.182405e+03
  8.497197e+00    1.178626e+03
  8.519980e+00    1.174676e+03
  8.542763e+00    1.170977e+03
  8.565546e+00    1.167430e+03
  8.588329e+00    1.163977e+03
  8.611111e+00    1.160631e+03
  8.633894e+00    1.157043e+03
  8.656677e+00    1.153710e+03
  8.679460e+00    1.150524e+03
  8.702243e+00    1.147285e+03
  8.725025e+00    1.144135e+03
  8.747808e+00    1.141062e+03
  8.770591e+00    1.137993e+03
  8.793374e+00    1.134827e+03
  8.816156e+00    1.131269e+03
  8.838939e+00    1.127749e+03
  8.861722e+00    1.124109e+03
  8.884505e+00    1.120755e+03
  8.907288e+00    1.117283e+03
  8.930070e+00    1.113450e+03
  8.952853e+00    1.109772e+03
  8.975636e+00    1.106070e+03
  8.998419e+00    1.102253e+03
  9.021202e+00    1.098356e+03
  9.043984e+00    1.094645e+03
  9.066767e+00    1.090767e+03
  9.089550e+00    1.086836e+03
  9.112333e+00    1.082742e+03
  9.135116e+00    1.078562e+03
  9.157898e+00    1.074239e+03
  9.180681e+00    1.069816e+03
  9.203464e+00    1.065211e+03
  9.226247e+00    1.060664e+03
  9.249030e+00    1.055971e+03
  9.271812e+00    1.051573e+03
  9.294595e+00    1.047228e+03
  9.317378e+00    1.042714e+03
  9.340161e+00    1.038427e+03
  9.362944e+00    1.033882e+03
  9.385726e+00    1.029144e+03
  9.408509e+00    1.024608e+03
  9.431292e+00    1.020208e+03
  9.454075e+00    1.015744e+03
  9.476858e+00    1.011460e+03
  9.499640e+00    1.007104e+03
  9.522423e+00    1.002599e+03
  9.545206e+00    9.979846e+02
  9.567989e+00    9.935656e+02
  9.590772e+00    9.891528e+02
  9.613554e+00    9.849175e+02
  9.636337e+00    9.805604e+02
  9.659120e+00    9.765377e+02
  9.681903e+00    9.726364e+02
  9.704685e+00    9.688438e+02
  9.727468e+00    9.650847e+02
  9.750251e+00    9.614011e+02
  9.773034e+00    9.583226e+02
  9.795817e+00    9.549490e+02
  9.818599e+00    9.514016e+02
  9.841382e+00    9.478973e+02
  9.864165e+00    9.446414e+02
  9.886948e+00    9.416338e+02
  9.909731e+00    9.387233e+02
  9.932513e+00    9.358475e+02
  9.955296e+00    9.331802e+02
  9.978079e+00    9.306772e+02
  1.000086e+01    9.282689e+02
  1.002364e+01    9.258903e+02
  1.004643e+01    9.236320e+02
  1.006921e+01    9.212705e+02
  1.009199e+01    9.189777e+02
  1.011478e+01    9.168972e+02
  1.013756e+01    9.148134e+02
  1.016034e+01    9.126934e+02
  1.018312e+01    9.106358e+02
  1.020591e+01    9.084351e+02
  1.022869e+01    9.064402e+02
  1.025147e+01    9.046400e+02
  1.027426e+01    9.028937e+02
  1.029704e+01    9.012593e+02
  1.031982e+01    8.996812e+02
  1.034260e+01    8.981696e+02
  1.036539e+01    8.966617e+02
  1.038817e+01    8.951279e+02
  1.041095e+01    8.935936e+02
  1.043373e+01    8.920649e+02
  1.045652e+01    8.905084e+02
  1.047930e+01    8.888331e+02
  1.050208e+01    8.873546e+02
  1.052487e+01    8.859645e+02
  1.054765e+01    8.846904e+02
  1.057043e+01    8.833638e+02
  1.059321e+01    8.819451e+02
  1.061600e+01    8.804628e+02
  1.063878e+01    8.789206e+02
  1.066156e+01    8.775830e+02
  1.068435e+01    8.761736e+02
  1.070713e+01    8.747159e+02
  1.072991e+01    8.731278e+02
  1.075269e+01    8.715612e+02
  1.077548e+01    8.698957e+02
  1.079826e+01    8.681857e+02
  1.082104e+01    8.666159e+02
  1.084383e+01    8.649980e+02
  1.086661e+01    8.633469e+02
  1.088939e+01    8.618195e+02
  1.091217e+01    8.603282e+02
  1.093496e+01    8.588104e+02
  1.095774e+01    8.572567e+02
  1.098052e+01    8.556954e+02
  1.100330e+01    8.542165e+02
  1.102609e+01    8.526798e+02
  1.104887e+01    8.510761e+02
  1.107165e+01    8.495508e+02
  1.109444e+01    8.480414e+02
  1.111722e+01    8.464981e+02
  1.114000e+01    8.448378e+02
  1.116278e+01    8.430641e+02
  1.118557e+01    8.413967e+02
  1.120835e+01    8.399188e+02
  1.123113e+01    8.383299e+02
  1.125392e+01    8.368146e+02
  1.127670e+01    8.354370e+02
  1.129948e+01    8.340330e+02
  1.132226e+01    8.325486e+02
  1.134505e+01    8.311343e+02
  1.136783e+01    8.297042e+02
  1.139061e+01    8.284362e+02
  1.141340e+01    8.272214e+02
  1.143618e+01    8.260668e+02
  1.145896e+01    8.249530e+02
  1.148174e+01    8.238499e+02
  1.150453e+01    8.228174e+02
  1.152731e+01    8.218287e+02
  1.155009e+01    8.209385e+02
  1.157287e+01    8.200254e+02
  1.159566e+01    8.190468e+02
  1.161844e+01    8.181224e+02
  1.164122e+01    8.171535e+02
  1.166401e+01    8.163644e+02
  1.168679e+01    8.157386e+02
  1.170957e+01    8.150673e+02
  1.173235e+01    8.144069e+02
  1.175514e+01    8.137047e+02
  1.177792e+01    8.130692e+02
  1.180070e+01    8.125426e+02
  1.182349e+01    8.119276e+02
  1.184627e+01    8.114076e+02
  1.186905e+01    8.109090e+02
  1.189183e+01    8.104739e+02
  1.191462e+01    8.101398e+02
  1.193740e+01    8.097739e+02
  1.196018e+01    8.095020e+02
  1.198296e+01    8.091960e+02
  1.200575e+01    8.089009e+02
  1.202853e+01    8.085756e+02
  1.205131e+01    8.082815e+02
  1.207410e+01    8.079927e+02
  1.209688e+01    8.076036e+02
  1.211966e+01    8.071290e+02
  1.214244e+01    8.067185e+02
  1.216523e+01    8.063505e+02
  1.218801e+01    8.058054e+02
  1.221079e+01    8.053250e+02
  1.223358e+01    8.047812e+02
  1.225636e+01    8.041310e+02
  1.227914e+01    8.034504e+02
  1.230192e+01    8.027360e+02
  1.232471e+01    8.020189e+02
  1.234749e+01    8.012086e+02
  1.237027e+01    8.002967e+02
  1.239306e+01    7.995070e+02
  1.241584e+01    7.985101e+02
  1.243862e+01    7.974410e+02
  1.246140e+01    7.964424e+02
  1.248419e+01    7.953936e+02
  1.250697e+01    7.943355e+02
  1.252975e+01    7.930734e+02
  1.255253e+01    7.915952e+02
  1.257532e+01    7.901358e+02
  1.259810e+01    7.885816e+02
  1.262088e+01    7.870621e+02
  1.264367e+01    7.855638e+02
  1.266645e+01    7.840066e+02
  1.268923e+01    7.822979e+02
  1.271201e+01    7.805425e+02
  1.273480e+01    7.786742e+02
  1.275758e+01    7.769315e+02
  1.278036e+01    7.752147e+02
  1.280315e+01    7.735094e+02
  1.282593e+01    7.717158e+02
  1.284871e+01    7.699739e+02
  1.287149e+01    7.681926e+02
  1.289428e+01    7.663303e+02
  1.291706e+01    7.644885e+02
  1.293984e+01    7.625688e+02
  1.296263e+01    7.607144e+02
  1.298541e+01    7.587999e+02
  1.300819e+01    7.569229e+02
  1.303097e+01    7.550182e+02
  1.305376e+01    7.531266e+02
  1.307654e+01    7.511329e+02
  1.309932e+01    7.492014e+02
  1.312210e+01    7.473808e+02
  1.314489e+01    7.455460e+02
  1.316767e+01    7.436270e+02
  1.319045e+01    7.418506e+02
  1.321324e+01    7.401278e+02
  1.323602e+01    7.382487e+02
  1.325880e+01    7.364880e+02
  1.328158e+01    7.347977e+02
  1.330437e+01    7.331064e+02
  1.332715e+01    7.314628e+02
  1.334993e+01    7.297325e+02
  1.337272e+01    7.280870e+02
  1.339550e+01    7.264225e+02
  1.341828e+01    7.248578e+02
  1.344106e+01    7.232344e+02
  1.346385e+01    7.217305e+02
  1.348663e+01    7.201879e+02
  1.350941e+01    7.186442e+02
  1.353219e+01    7.170407e+02
  1.355498e+01    7.155154e+02
  1.357776e+01    7.137841e+02
  1.360054e+01    7.120994e+02
  1.362333e+01    7.105783e+02
  1.364611e+01    7.091407e+02
  1.366889e+01    7.077246e+02
  1.369167e+01    7.063278e+02
  1.371446e+01    7.048887e+02
  1.373724e+01    7.035500e+02
  1.376002e+01    7.022802e+02
  1.378281e+01    7.010668e+02
  1.380559e+01    6.998162e+02
  1.382837e+01    6.985333e+02
  1.385115e+01    6.973707e+02
  1.387394e+01    6.962057e+02
  1.389672e+01    6.950851e+02
  1.391950e+01    6.940110e+02
  1.394229e+01    6.928874e+02
  1.396507e+01    6.917756e+02
  1.398785e+01    6.905960e+02
  1.401063e+01    6.893926e+02
  1.403342e+01    6.883594e+02
  1.405620e+01    6.872175e+02
  1.407898e+01    6.861287e+02
  1.410176e+01    6.852219e+02
  1.412455e+01    6.842053e+02
  1.414733e+01    6.831447e+02
  1.417011e+01    6.821957e+02
  1.419290e+01    6.812299e+02
  1.421568e+01    6.803588e+02
  1.423846e+01    6.794658e+02
  1.426124e+01    6.785309e+02
  1.428403e+01    6.776088e+02
  1.430681e+01    6.765806e+02
  1.432959e+01    6.755492e+02
  1.435238e+01    6.745563e+02
  1.437516e+01    6.736712e+02
  1.439794e+01    6.729225e+02
  1.442072e+01    6.721050e+02
  1.444351e+01    6.711483e+02
  1.446629e+01    6.702949e+02
  1.448907e+01    6.694691e+02
  1.451186e+01    6.686360e+02
  1.453464e+01    6.678251e+02
  1.455742e+01    6.670876e+02
  1.458020e+01    6.663046e+02
  1.460299e+01    6.654957e+02
  1.462577e+01    6.647176e+02
  1.464855e+01    6.639112e+02
  1.467133e+01    6.630361e+02
  1.469412e+01    6.622379e+02
  1.471690e+01    6.614741e+02
  1.473968e+01    6.605839e+02
  1.476247e+01    6.597734e+02
  1.478525e+01    6.589683e+02
  1.480803e+01    6.581993e+02
  1.483081e+01    6.574201e+02
  1.485360e+01    6.566213e+02
  1.487638e+01    6.558283e+02
  1.489916e+01    6.551039e+02
  1.492195e+01    6.543428e+02
  1.494473e+01    6.535841e+02
  1.496751e+01    6.528485e+02
  1.499029e+01    6.521419e+02
  1.501308e+01    6.513884e+02
  1.503586e+01    6.509326e+02
  1.505864e+01    6.500438e+02
  1.508142e+01    6.492130e+02
  1.510421e+01    6.483274e+02
  1.512699e+01    6.473417e+02
  1.514977e+01    6.464696e+02
  1.517256e+01    6.457861e+02
  1.519534e+01    6.450245e+02
  1.521812e+01    6.442341e+02
  1.524090e+01    6.434763e+02
  1.526369e+01    6.426426e+02
  1.528647e+01    6.418110e+02
  1.530925e+01    6.409786e+02
  1.533204e+01    6.401735e+02
  1.535482e+01    6.393480e+02
  1.537760e+01    6.385810e+02
  1.540038e+01    6.377623e+02
  1.542317e+01    6.369288e+02
  1.544595e+01    6.361091e+02
  1.546873e+01    6.352298e+02
  1.549152e+01    6.343785e+02
  1.551430e+01    6.335347e+02
  1.553708e+01    6.327241e+02
  1.555986e+01    6.318049e+02
  1.558265e+01    6.310201e+02
  1.560543e+01    6.301563e+02
  1.562821e+01    6.293372e+02
  1.565099e+01    6.284890e+02
  1.567378e+01    6.276983e+02
  1.569656e+01    6.268583e+02
  1.571934e+01    6.260630e+02
  1.574213e+01    6.252372e+02
  1.576491e+01    6.244077e+02
  1.578769e+01    6.236097e+02
  1.581047e+01    6.227682e+02
  1.583326e+01    6.219657e+02
  1.585604e+01    6.211506e+02
  1.587882e+01    6.203232e+02
  1.590161e+01    6.194951e+02
  1.592439e+01    6.186912e+02
  1.594717e+01    6.179755e+02
  1.596995e+01    6.171791e+02
  1.599274e+01    6.163713e+02
  1.601552e+01    6.155998e+02
  1.603830e+01    6.148492e+02
  1.606109e+01    6.141205e+02
  1.608387e+01    6.134004e+02
  1.610665e+01    6.126844e+02
  1.612943e+01    6.119994e+02
  1.615222e+01    6.112536e+02
  1.617500e+01    6.104869e+02
  1.619778e+01    6.097920e+02
  1.622056e+01    6.090216e+02
  1.624335e+01    6.082294e+02
  1.626613e+01    6.076295e+02
  1.628891e+01    6.069432e+02
  1.631170e+01    6.062267e+02
  1.633448e+01    6.054572e+02
  1.635726e+01    6.047787e+02
  1.638004e+01    6.040591e+02
  1.640283e+01    6.033573e+02
  1.642561e+01    6.026055e+02
  1.644839e+01    6.018517e+02
  1.647118e+01    6.011589e+02
  1.649396e+01    6.004291e+02
  1.651674e+01    5.997108e+02
  1.653952e+01    5.989567e+02
  1.656231e+01    5.981862e+02
  1.658509e+01    5.973887e+02
  1.660787e+01    5.966791e+02
  1.663065e+01    5.959287e+02
  1.665344e+01    5.952368e+02
  1.667622e+01    5.945109e+02
  1.669900e+01    5.937576e+02
  1.672179e+01    5.930292e+02
  1.674457e+01    5.921552e+02
  1.676735e+01    5.913229e+02
  1.679013e+01    5.904660e+02
  1.681292e+01    5.896098e+02
  1.683570e+01    5.887045e+02
  1.685848e+01    5.878088e+02
  1.688127e+01    5.868758e+02
  1.690405e+01    5.860064e+02
  1.692683e+01    5.851401e+02
  1.694961e+01    5.841714e+02
  1.697240e+01    5.832274e+02
  1.699518e+01    5.823553e+02
  1.701796e+01    5.814492e+02
  1.704075e+01    5.804807e+02
  1.706353e+01    5.794696e+02
  1.708631e+01    5.784444e+02
  1.710909e+01    5.774044e+02
  1.713188e+01    5.763865e+02
  1.715466e+01    5.754012e+02
  1.717744e+01    5.743199e+02
  1.720022e+01    5.732949e+02
  1.722301e+01    5.723278e+02
  1.724579e+01    5.712977e+02
  1.726857e+01    5.703203e+02
  1.729136e+01    5.693073e+02
  1.731414e+01    5.683113e+02
  1.733692e+01    5.672106e+02
  1.735970e+01    5.661281e+02
  1.738249e+01    5.650947e+02
  1.740527e+01    5.640822e+02
  1.742805e+01    5.630264e+02
  1.745084e+01    5.620256e+02
  1.747362e+01    5.609561e+02
  1.749640e+01    5.599179e+02
  1.751918e+01    5.588776e+02
  1.754197e+01    5.577522e+02
  1.756475e+01    5.566927e+02
  1.758753e+01    5.557076e+02
  1.761032e+01    5.547319e+02
  1.763310e+01    5.537507e+02
  1.765588e+01    5.528164e+02
  1.767866e+01    5.518848e+02
  1.770145e+01    5.508716e+02
  1.772423e+01    5.498583e+02
  1.774701e+01    5.489543e+02
  1.776979e+01    5.480703e+02
  1.779258e+01    5.471791e+02
  1.781536e+01    5.462856e+02
  1.783814e+01    5.453159e+02
  1.786093e+01    5.444329e+02
  1.788371e+01    5.435219e+02
  1.790649e+01    5.426335e+02
  1.792927e+01    5.417098e+02
  1.795206e+01    5.408507e+02
  1.797484e+01    5.399725e+02
  1.799762e+01    5.391827e+02
  1.802041e+01    5.383122e+02
  1.804319e+01    5.374455e+02
  1.806597e+01    5.366322e+02
  1.808875e+01    5.358348e+02
  1.811154e+01    5.350179e+02
  1.813432e+01    5.341639e+02
  1.815710e+01    5.333915e+02
  1.817989e+01    5.326397e+02
  1.820267e+01    5.317798e+02
  1.822545e+01    5.310010e+02
  1.824823e+01    5.301849e+02
  1.827102e+01    5.294636e+02
  1.829380e+01    5.286223e+02
  1.831658e+01    5.278735e+02
  1.833936e+01    5.271365e+02
  1.836215e+01    5.263386e+02
  1.838493e+01    5.255299e+02
  1.840771e+01    5.248356e+02
  1.843050e+01    5.241711e+02
  1.845328e+01    5.234548e+02
  1.847606e+01    5.227220e+02
  1.849884e+01    5.220187e+02
  1.852163e+01    5.212941e+02
  1.854441e+01    5.205540e+02
  1.856719e+01    5.198621e+02
  1.858998e+01    5.192029e+02
  1.861276e+01    5.185679e+02
  1.863554e+01    5.178521e+02
  1.865832e+01    5.171839e+02
  1.868111e+01    5.164286e+02
  1.870389e+01    5.157704e+02
  1.872667e+01    5.151151e+02
  1.874945e+01    5.144730e+02
  1.877224e+01    5.137983e+02
  1.879502e+01    5.131613e+02
  1.881780e+01    5.125202e+02
  1.884059e+01    5.118490e+02
  1.886337e+01    5.111849e+02
  1.888615e+01    5.105660e+02
  1.890893e+01    5.099378e+02
  1.893172e+01    5.093209e+02
  1.895450e+01    5.086364e+02
  1.897728e+01    5.079226e+02
  1.900007e+01    5.072817e+02
  1.902285e+01    5.066646e+02
  1.904563e+01    5.060292e+02
  1.906841e+01    5.053747e+02
  1.909120e+01    5.047221e+02
  1.911398e+01    5.040655e+02
  1.913676e+01    5.034322e+02
  1.915955e+01    5.027357e+02
  1.918233e+01    5.021101e+02
  1.920511e+01    5.014342e+02
  1.922789e+01    5.007782e+02
  1.925068e+01    5.001111e+02
  1.927346e+01    4.994566e+02
  1.929624e+01    4.987497e+02
  1.931902e+01    4.980020e+02
  1.934181e+01    4.974024e+02
  1.936459e+01    4.967475e+02
  1.938737e+01    4.960299e+02
  1.941016e+01    4.954110e+02
  1.943294e+01    4.947620e+02
  1.945572e+01    4.940787e+02
  1.947850e+01    4.933971e+02
  1.950129e+01    4.927280e+02
  1.952407e+01    4.921149e+02
  1.954685e+01    4.914303e+02
  1.956964e+01    4.907948e+02
  1.959242e+01    4.901782e+02
  1.961520e+01    4.895033e+02
  1.963798e+01    4.888089e+02
  1.966077e+01    4.880799e+02
  1.968355e+01    4.874094e+02
  1.970633e+01    4.867245e+02
  1.972912e+01    4.860143e+02
  1.975190e+01    4.853340e+02
  1.977468e+01    4.845933e+02
  1.979746e+01    4.838607e+02
  1.982025e+01    4.832236e+02
  1.984303e+01    4.825433e+02
  1.986581e+01    4.818387e+02
  1.988859e+01    4.811365e+02
  1.991138e+01    4.804140e+02
  1.993416e+01    4.797165e+02
  1.995694e+01    4.789176e+02
  1.997973e+01    4.781860e+02
  2.000251e+01    4.775148e+02
  2.002529e+01    4.767786e+02
  2.004807e+01    4.760448e+02
  2.007086e+01    4.752653e+02
  2.009364e+01    4.745270e+02
  2.011642e+01    4.737795e+02
  2.013921e+01    4.730453e+02
  2.016199e+01    4.723052e+02
  2.018477e+01    4.715217e+02
  2.020755e+01    4.707239e+02
  2.023034e+01    4.699649e+02
  2.025312e+01    4.691823e+02
  2.027590e+01    4.684093e+02
  2.029868e+01    4.675797e+02
  2.032147e+01    4.667766e+02
  2.034425e+01    4.659851e+02
  2.036703e+01    4.652027e+02
  2.038982e+01    4.644392e+02
  2.041260e+01    4.636343e+02
  2.043538e+01    4.629480e+02
  2.045816e+01    4.622165e+02
  2.048095e+01    4.614776e+02
  2.050373e+01    4.607712e+02
  2.052651e+01    4.599975e+02
  2.054930e+01    4.592646e+02
  2.057208e+01    4.585424e+02
  2.059486e+01    4.578360e+02
  2.061764e+01    4.571256e+02
  2.064043e+01    4.564234e+02
  2.066321e+01    4.556936e+02
  2.068599e+01    4.549536e+02
  2.070878e+01    4.542656e+02
  2.073156e+01    4.535653e+02
  2.075434e+01    4.527622e+02
  2.077712e+01    4.519868e+02
  2.079991e+01    4.512561e+02
  2.082269e+01    4.504700e+02
  2.084547e+01    4.497333e+02
  2.086825e+01    4.489763e+02
  2.089104e+01    4.483156e+02
  2.091382e+01    4.475516e+02
  2.093660e+01    4.468144e+02
  2.095939e+01    4.461155e+02
  2.098217e+01    4.453828e+02
  2.100495e+01    4.446831e+02
  2.102773e+01    4.439339e+02
  2.105052e+01    4.431322e+02
  2.107330e+01    4.423489e+02
  2.109608e+01    4.415604e+02
  2.111887e+01    4.408724e+02
  2.114165e+01    4.401992e+02
  2.116443e+01    4.394361e+02
  2.118721e+01    4.386266e+02
  2.121000e+01    4.378980e+02
  2.123278e+01    4.371494e+02
  2.125556e+01    4.364447e+02
  2.127835e+01    4.357177e+02
  2.130113e+01    4.350195e+02
  2.132391e+01    4.342816e+02
  2.134669e+01    4.335398e+02
  2.136948e+01    4.327773e+02
  2.139226e+01    4.320507e+02
  2.141504e+01    4.315114e+02
  2.143782e+01    4.310689e+02
  2.146061e+01    4.301616e+02
  2.148339e+01    4.293432e+02
  2.150617e+01    4.285610e+02
  2.152896e+01    4.277843e+02
  2.155174e+01    4.270410e+02
  2.157452e+01    4.263050e+02
  2.159730e+01    4.255420e+02
  2.162009e+01    4.248523e+02
  2.164287e+01    4.241095e+02
  2.166565e+01    4.233569e+02
  2.168844e+01    4.225982e+02
  2.171122e+01    4.218931e+02
  2.173400e+01    4.211710e+02
  2.175678e+01    4.204533e+02
  2.177957e+01    4.197495e+02
  2.180235e+01    4.189882e+02
  2.182513e+01    4.182564e+02
  2.184791e+01    4.175647e+02
  2.187070e+01    4.168620e+02
  2.189348e+01    4.161206e+02
  2.191626e+01    4.153851e+02
  2.193905e+01    4.146551e+02
  2.196183e+01    4.139583e+02
  2.198461e+01    4.132490e+02
  2.200739e+01    4.125760e+02
  2.203018e+01    4.118770e+02
  2.205296e+01    4.111646e+02
  2.207574e+01    4.104531e+02
  2.209853e+01    4.097203e+02
  2.212131e+01    4.090208e+02
  2.214409e+01    4.083037e+02
  2.216687e+01    4.076553e+02
  2.218966e+01    4.069937e+02
  2.221244e+01    4.062996e+02
  2.223522e+01    4.056244e+02
  2.225801e+01    4.049184e+02
  2.228079e+01    4.042569e+02
  2.230357e+01    4.035462e+02
  2.232635e+01    4.028676e+02
  2.234914e+01    4.021915e+02
  2.237192e+01    4.015099e+02
  2.239470e+01    4.007900e+02
  2.241748e+01    4.000735e+02
  2.244027e+01    3.993862e+02
  2.246305e+01    3.987331e+02
  2.248583e+01    3.980476e+02
  2.250862e+01    3.974319e+02
  2.253140e+01    3.967540e+02
  2.255418e+01    3.960804e+02
  2.257696e+01    3.954008e+02
  2.259975e+01    3.947006e+02
  2.262253e+01    3.940538e+02
  2.264531e+01    3.933801e+02
  2.266810e+01    3.927853e+02
  2.269088e+01    3.921575e+02
  2.271366e+01    3.914988e+02
  2.273644e+01    3.908737e+02
  2.275923e+01    3.902217e+02
  2.278201e+01    3.895878e+02
  2.280479e+01    3.889314e+02
  2.282758e+01    3.882754e+02
  2.285036e+01    3.876229e+02
  2.287314e+01    3.869799e+02
  2.289592e+01    3.863662e+02
  2.291871e+01    3.857261e+02
  2.294149e+01    3.850774e+02
  2.296427e+01    3.844347e+02
  2.298705e+01    3.837374e+02
  2.300984e+01    3.831009e+02
  2.303262e+01    3.824944e+02
  2.305540e+01    3.818431e+02
  2.307819e+01    3.812018e+02
  2.310097e+01    3.805248e+02
  2.312375e+01    3.798454e+02
  2.314653e+01    3.792319e+02
  2.316932e+01    3.785608e+02
  2.319210e+01    3.778770e+02
  2.321488e+01    3.772679e+02
  2.323767e+01    3.766172e+02
  2.326045e+01    3.760246e+02
  2.328323e+01    3.753758e+02
  2.330601e+01    3.747390e+02
  2.332880e+01    3.740758e+02
  2.335158e+01    3.734171e+02
  2.337436e+01    3.727668e+02
  2.339714e+01    3.721235e+02
  2.341993e+01    3.715691e+02
  2.344271e+01    3.709716e+02
  2.346549e+01    3.702798e+02
  2.348828e+01    3.696469e+02
  2.351106e+01    3.689763e+02
  2.353384e+01    3.683524e+02
  2.355662e+01    3.677245e+02
  2.357941e+01    3.671036e+02
  2.360219e+01    3.664848e+02
  2.362497e+01    3.658355e+02
  2.364776e+01    3.651573e+02
  2.367054e+01    3.645110e+02
  2.369332e+01    3.641316e+02
  2.371610e+01    3.635876e+02
  2.373889e+01    3.628300e+02
  2.376167e+01    3.620593e+02
  2.378445e+01    3.613429e+02
  2.380724e+01    3.606465e+02
  2.383002e+01    3.599810e+02
  2.385280e+01    3.593322e+02
  2.387558e+01    3.586848e+02
  2.389837e+01    3.580860e+02
  2.392115e+01    3.574222e+02
  2.394393e+01    3.567243e+02
  2.396671e+01    3.560526e+02
  2.398950e+01    3.553785e+02
  2.401228e+01    3.547309e+02
  2.403506e+01    3.541054e+02
  2.405785e+01    3.534370e+02
  2.408063e+01    3.527756e+02
  2.410341e+01    3.521353e+02
  2.412619e+01    3.514562e+02
  2.414898e+01    3.508199e+02
  2.417176e+01    3.501688e+02
  2.419454e+01    3.495244e+02
  2.421733e+01    3.488895e+02
  2.424011e+01    3.482375e+02
  2.426289e+01    3.475952e+02
  2.428567e+01    3.469340e+02
  2.430846e+01    3.463036e+02
  2.433124e+01    3.456303e+02
  2.435402e+01    3.449760e+02
  2.437681e+01    3.443060e+02
  2.439959e+01    3.436422e+02
  2.442237e+01    3.430150e+02
  2.444515e+01    3.423227e+02
  2.446794e+01    3.416852e+02
  2.449072e+01    3.409899e+02
  2.451350e+01    3.403129e+02
  2.453628e+01    3.396505e+02
  2.455907e+01    3.389911e+02
  2.458185e+01    3.383270e+02
  2.460463e+01    3.376623e+02
  2.462742e+01    3.370137e+02
  2.465020e+01    3.363521e+02
  2.467298e+01    3.357068e+02
  2.469576e+01    3.350912e+02
  2.471855e+01    3.344293e+02
  2.474133e+01    3.337392e+02
  2.476411e+01    3.330779e+02
  2.478690e+01    3.324302e+02
  2.480968e+01    3.317192e+02
  2.483246e+01    3.311537e+02
  2.485524e+01    3.304201e+02
  2.487803e+01    3.297685e+02
  2.490081e+01    3.291387e+02
  2.492359e+01    3.284892e+02
  2.494637e+01    3.277646e+02
  2.496916e+01    3.270792e+02
  2.499194e+01    3.265002e+02
  2.501472e+01    3.258459e+02
  2.503751e+01    3.251630e+02
  2.506029e+01    3.245117e+02
  2.508307e+01    3.238483e+02
  2.510585e+01    3.231691e+02
  2.512864e+01    3.225067e+02
  2.515142e+01    3.218966e+02
  2.517420e+01    3.212261e+02
  2.519699e+01    3.205419e+02
  2.521977e+01    3.198706e+02
  2.524255e+01    3.192700e+02
  2.526533e+01    3.186662e+02
  2.528812e+01    3.180089e+02
  2.531090e+01    3.173037e+02
  2.533368e+01    3.166428e+02
  2.535647e+01    3.160428e+02
  2.537925e+01    3.154469e+02
  2.540203e+01    3.148489e+02
  2.542481e+01    3.142399e+02
  2.544760e+01    3.136096e+02
  2.547038e+01    3.129818e+02
  2.549316e+01    3.123608e+02
  2.551594e+01    3.117347e+02
  2.553873e+01    3.110770e+02
  2.556151e+01    3.104538e+02
  2.558429e+01    3.097979e+02
  2.560708e+01    3.092186e+02
  2.562986e+01    3.085710e+02
  2.565264e+01    3.079500e+02
  2.567542e+01    3.073580e+02
  2.569821e+01    3.067379e+02
  2.572099e+01    3.061194e+02
  2.574377e+01    3.055314e+02
  2.576656e+01    3.049279e+02
  2.578934e+01    3.043022e+02
  2.581212e+01    3.036714e+02
  2.583490e+01    3.030239e+02
  2.585769e+01    3.023736e+02
  2.588047e+01    3.017773e+02
  2.590325e+01    3.011465e+02
  2.592604e+01    3.005468e+02
  2.594882e+01    2.999342e+02
  2.597160e+01    2.993467e+02
  2.599438e+01    2.987369e+02
  2.601717e+01    2.981554e+02
  2.603995e+01    2.975269e+02
  2.606273e+01    2.968859e+02
  2.608551e+01    2.962948e+02
  2.610830e+01    2.956681e+02
  2.613108e+01    2.950634e+02
  2.615386e+01    2.944932e+02
  2.617665e+01    2.938549e+02
  2.619943e+01    2.932478e+02
  2.622221e+01    2.926620e+02
  2.624499e+01    2.920622e+02
  2.626778e+01    2.914492e+02
  2.629056e+01    2.908676e+02
  2.631334e+01    2.902784e+02
  2.633613e+01    2.896276e+02
  2.635891e+01    2.890318e+02
  2.638169e+01    2.884295e+02
  2.640447e+01    2.878653e+02
  2.642726e+01    2.872672e+02
  2.645004e+01    2.866105e+02
  2.647282e+01    2.859934e+02
  2.649560e+01    2.853807e+02
  2.651839e+01    2.847660e+02
  2.654117e+01    2.841452e+02
  2.656395e+01    2.835491e+02
  2.658674e+01    2.829725e+02
  2.660952e+01    2.823515e+02
  2.663230e+01    2.817495e+02
  2.665508e+01    2.811562e+02
  2.667787e+01    2.805745e+02
  2.670065e+01    2.799807e+02
  2.672343e+01    2.793917e+02
  2.674622e+01    2.787739e+02
  2.676900e+01    2.781708e+02
  2.679178e+01    2.775893e+02
  2.681456e+01    2.769858e+02
  2.683735e+01    2.764069e+02
  2.686013e+01    2.757451e+02
  2.688291e+01    2.751160e+02
  2.690570e+01    2.745422e+02
  2.692848e+01    2.739778e+02
  2.695126e+01    2.733567e+02
  2.697404e+01    2.727654e+02
  2.699683e+01    2.721895e+02
  2.701961e+01    2.715316e+02
  2.704239e+01    2.709107e+02
  2.706517e+01    2.702977e+02
  2.708796e+01    2.696844e+02
  2.711074e+01    2.690666e+02
  2.713352e+01    2.684607e+02
  2.715631e+01    2.678577e+02
  2.717909e+01    2.672514e+02
  2.720187e+01    2.669166e+02
  2.722465e+01    2.671973e+02
  2.724744e+01    2.670782e+02
  2.727022e+01    2.668176e+02
  2.729300e+01    2.665240e+02
  2.731579e+01    2.661953e+02
  2.733857e+01    2.657852e+02
  2.736135e+01    2.654364e+02
  2.738413e+01    2.650162e+02
  2.740692e+01    2.644885e+02
  2.742970e+01    2.636457e+02
  2.745248e+01    2.629171e+02
  2.747527e+01    2.622212e+02
  2.749805e+01    2.615816e+02
  2.752083e+01    2.608705e+02
  2.754361e+01    2.602233e+02
  2.756640e+01    2.595965e+02
  2.758918e+01    2.588496e+02
  2.761196e+01    2.574768e+02
  2.763474e+01    2.563221e+02
  2.765753e+01    2.552479e+02
  2.768031e+01    2.542944e+02
  2.770309e+01    2.533466e+02
  2.772588e+01    2.523711e+02
  2.774866e+01    2.514600e+02
  2.777144e+01    2.505408e+02
  2.779422e+01    2.502061e+02
  2.781701e+01    2.503776e+02
  2.783979e+01    2.501202e+02
  2.786257e+01    2.497915e+02
  2.788536e+01    2.493783e+02
  2.790814e+01    2.488929e+02
  2.793092e+01    2.484216e+02
  2.795370e+01    2.479528e+02
  2.797649e+01    2.473864e+02
  2.799927e+01    2.469043e+02
  2.802205e+01    2.463915e+02
  2.804483e+01    2.458931e+02
  2.806762e+01    2.453792e+02
  2.809040e+01    2.448684e+02
  2.811318e+01    2.443194e+02
  2.813597e+01    2.437792e+02
  2.815875e+01    2.432513e+02
  2.818153e+01    2.427010e+02
  2.820431e+01    2.421186e+02
  2.822710e+01    2.415591e+02
  2.824988e+01    2.410254e+02
  2.827266e+01    2.404954e+02
  2.829545e+01    2.399620e+02
  2.831823e+01    2.394247e+02
  2.834101e+01    2.388898e+02
  2.836379e+01    2.383340e+02
  2.838658e+01    2.377429e+02
  2.840936e+01    2.372001e+02
  2.843214e+01    2.366841e+02
  2.845493e+01    2.360957e+02
  2.847771e+01    2.355678e+02
  2.850049e+01    2.350339e+02
  2.852327e+01    2.344742e+02
  2.854606e+01    2.339239e+02
  2.856884e+01    2.333607e+02
  2.859162e+01    2.328099e+02
  2.861440e+01    2.322780e+02
  2.863719e+01    2.317161e+02
  2.865997e+01    2.311792e+02
  2.868275e+01    2.306366e+02
  2.870554e+01    2.300676e+02
  2.872832e+01    2.295146e+02
  2.875110e+01    2.289924e+02
  2.877388e+01    2.284427e+02
  2.879667e+01    2.278995e+02
  2.881945e+01    2.273265e+02
  2.884223e+01    2.268003e+02
  2.886502e+01    2.262364e+02
  2.888780e+01    2.256953e+02
  2.891058e+01    2.251004e+02
  2.893336e+01    2.245610e+02
  2.895615e+01    2.240230e+02
  2.897893e+01    2.235456e+02
  2.900171e+01    2.230343e+02
  2.902450e+01    2.224951e+02
  2.904728e+01    2.218797e+02
  2.907006e+01    2.213166e+02
  2.909284e+01    2.207919e+02
  2.911563e+01    2.202229e+02
  2.913841e+01    2.196895e+02
  2.916119e+01    2.191264e+02
  2.918397e+01    2.185964e+02
  2.920676e+01    2.180339e+02
  2.922954e+01    2.174967e+02
  2.925232e+01    2.169813e+02
  2.927511e+01    2.164362e+02
  2.929789e+01    2.159268e+02
  2.932067e+01    2.153851e+02
  2.934345e+01    2.148286e+02
  2.936624e+01    2.143218e+02
  2.938902e+01    2.137356e+02
  2.941180e+01    2.132038e+02
  2.943459e+01    2.126784e+02
  2.945737e+01    2.121516e+02
  2.948015e+01    2.116612e+02
  2.950293e+01    2.111153e+02
  2.952572e+01    2.105558e+02
  2.954850e+01    2.100562e+02
  2.957128e+01    2.094736e+02
  2.959407e+01    2.089689e+02
  2.961685e+01    2.085065e+02
  2.963963e+01    2.079737e+02
  2.966241e+01    2.074090e+02
  2.968520e+01    2.068733e+02
  2.970798e+01    2.063744e+02
  2.973076e+01    2.058127e+02
  2.975354e+01    2.052722e+02
  2.977633e+01    2.047123e+02
  2.979911e+01    2.041744e+02
  2.982189e+01    2.036849e+02
  2.984468e+01    2.032333e+02
  2.986746e+01    2.026778e+02
  2.989024e+01    2.021348e+02
  2.991302e+01    2.016144e+02
  2.993581e+01    2.011341e+02
  2.995859e+01    2.005761e+02
  2.998137e+01    2.001098e+02
  3.000416e+01    1.995448e+02
  3.002694e+01    1.990589e+02
  3.004972e+01    1.985199e+02
  3.007250e+01    1.979836e+02
  3.009529e+01    1.974947e+02
  3.011807e+01    1.970352e+02
  3.014085e+01    1.964981e+02
  3.016363e+01    1.959526e+02
  3.018642e+01    1.954088e+02
  3.020920e+01    1.949168e+02
  3.023198e+01    1.944693e+02
  3.025477e+01    1.939239e+02
  3.027755e+01    1.934702e+02
  3.030033e+01    1.929195e+02
  3.032311e+01    1.923841e+02
  3.034590e+01    1.919110e+02
  3.036868e+01    1.914194e+02
  3.039146e+01    1.909150e+02
  3.041425e+01    1.904302e+02
  3.043703e+01    1.899952e+02
  3.045981e+01    1.894551e+02
  3.048259e+01    1.888975e+02
  3.050538e+01    1.883540e+02
  3.052816e+01    1.879370e+02
  3.055094e+01    1.874488e+02
  3.057373e+01    1.868886e+02
  3.059651e+01    1.864159e+02
  3.061929e+01    1.858929e+02
  3.064207e+01    1.854484e+02
  3.066486e+01    1.849028e+02
  3.068764e+01    1.843800e+02
  3.071042e+01    1.839227e+02
  3.073320e+01    1.834230e+02
  3.075599e+01    1.828536e+02
  3.077877e+01    1.824374e+02
  3.080155e+01    1.819393e+02
  3.082434e+01    1.814574e+02
  3.084712e+01    1.809303e+02
  3.086990e+01    1.803678e+02
  3.089268e+01    1.799205e+02
  3.091547e+01    1.793932e+02
  3.093825e+01    1.789532e+02
  3.096103e+01    1.785382e+02
  3.098382e+01    1.780442e+02
  3.100660e+01    1.775301e+02
  3.102938e+01    1.769958e+02
  3.105216e+01    1.765715e+02
  3.107495e+01    1.761651e+02
  3.109773e+01    1.757090e+02
  3.112051e+01    1.751118e+02
  3.114330e+01    1.746656e+02
  3.116608e+01    1.741086e+02
  3.118886e+01    1.736789e+02
  3.121164e+01    1.731557e+02
  3.123443e+01    1.727639e+02
  3.125721e+01    1.723032e+02
  3.127999e+01    1.717640e+02
  3.130277e+01    1.712745e+02
  3.132556e+01    1.707576e+02
  3.134834e+01    1.703129e+02
  3.137112e+01    1.699308e+02
  3.139391e+01    1.694207e+02
  3.141669e+01    1.690216e+02
  3.143947e+01    1.684441e+02
  3.146225e+01    1.681146e+02
  3.148504e+01    1.675359e+02
  3.150782e+01    1.667381e+02
  3.153060e+01    1.666204e+02
  3.155339e+01    1.662263e+02
  3.157617e+01    1.657105e+02
  3.159895e+01    1.652454e+02
  3.162173e+01    1.647830e+02
  3.164452e+01    1.643646e+02
  3.166730e+01    1.638860e+02
  3.169008e+01    1.634325e+02
  3.171286e+01    1.629265e+02
  3.173565e+01    1.624538e+02
  3.175843e+01    1.619855e+02
  3.178121e+01    1.615148e+02
  3.180400e+01    1.610218e+02
  3.182678e+01    1.605898e+02
  3.184956e+01    1.599131e+02
  3.187234e+01    1.596528e+02
  3.189513e+01    1.591793e+02
  3.191791e+01    1.587453e+02
  3.194069e+01    1.582461e+02
  3.196348e+01    1.577527e+02
  3.198626e+01    1.573905e+02
  3.200904e+01    1.568833e+02
  3.203182e+01    1.563323e+02
  3.205461e+01    1.560335e+02
  3.207739e+01    1.554482e+02
  3.210017e+01    1.550159e+02
  3.212296e+01    1.545962e+02
  3.214574e+01    1.540248e+02
  3.216852e+01    1.535421e+02
  3.219130e+01    1.530717e+02
  3.221409e+01    1.525607e+02
  3.223687e+01    1.520459e+02
  3.225965e+01    1.515580e+02
  3.228243e+01    1.511378e+02
  3.230522e+01    1.506297e+02
  3.232800e+01    1.501002e+02
  3.235078e+01    1.495898e+02
  3.237357e+01    1.491551e+02
  3.239635e+01    1.487866e+02
  3.241913e+01    1.482588e+02
  3.244191e+01    1.477009e+02
  3.246470e+01    1.471328e+02
  3.248748e+01    1.466112e+02
  3.251026e+01    1.461670e+02
  3.253305e+01    1.455966e+02
  3.255583e+01    1.450277e+02
  3.257861e+01    1.444764e+02
  3.260139e+01    1.440058e+02
  3.262418e+01    1.434638e+02
  3.264696e+01    1.429707e+02
  3.266974e+01    1.424861e+02
  3.269253e+01    1.420805e+02
  3.271531e+01    1.415663e+02
  3.273809e+01    1.408633e+02
  3.276087e+01    1.404710e+02
  3.278366e+01    1.399652e+02
  3.280644e+01    1.394890e+02
  3.282922e+01    1.389187e+02
  3.285200e+01    1.385582e+02
  3.287479e+01    1.378173e+02
  3.289757e+01    1.372836e+02
  3.292035e+01    1.369032e+02
  3.294314e+01    1.362370e+02
  3.296592e+01    1.357063e+02
  3.298870e+01    1.354450e+02
  3.301148e+01    1.348288e+02
  3.303427e+01    1.343709e+02
  3.305705e+01    1.339124e+02
  3.307983e+01    1.330873e+02
  3.310262e+01    1.328152e+02
  3.312540e+01    1.322767e+02
  3.314818e+01    1.316926e+02
  3.317096e+01    1.313546e+02
  3.319375e+01    1.309729e+02
  3.321653e+01    1.303953e+02
  3.323931e+01    1.302560e+02
  3.326209e+01    1.296329e+02
  3.328488e+01    1.289941e+02
  3.330766e+01    1.285009e+02
  3.333044e+01    1.278601e+02
  3.335323e+01    1.274321e+02
  3.337601e+01    1.271917e+02
  3.339879e+01    1.268904e+02
  3.342157e+01    1.265211e+02
  3.344436e+01    1.258729e+02
  3.346714e+01    1.247647e+02
  3.348992e+01    1.237610e+02
  3.351271e+01    1.247705e+02
  3.353549e+01    0.000000e+00
  3.355827e+01    0.000000e+00
  3.358105e+01    0.000000e+00
  3.360384e+01    0.000000e+00
  3.362662e+01    0.000000e+00
  3.364940e+01    0.000000e+00
  3.367219e+01    0.000000e+00
  3.369497e+01    0.000000e+00
  3.371775e+01    0.000000e+00
