# == pyFAI calibration ==
# Distance Sample to Detector: 0.21311058206280517 m
# PONI: 2.037e-01, 1.993e-01 m
# Rotations: -0.005459 0.000134 0.000000 rad
# 
# == Fit2d calibration ==
# Distance Sample-beamCenter: 213.114 mm
# Center: x=1002.134, y=1018.730 pix
# Tilt: 0.313 deg  TiltPlanRot: 1.411 deg
# 
# Detector Perkin detector	 PixelSize= 2.000e-04, 2.000e-04 m
#    Detector has a mask: False 
#    Detector has a dark current: False 
#    detector has a flat field: False 
# 
# Wavelength: 1.675e-11 m
# Mask applied: provided
# Dark current applied: False
# Flat field applied: False
# Polarization factor: None
# Normalization factor: 1.0
# --> data/chi_bkgsub_false/C_Tatania5-29.0-average.chi
#        q_A^-1             I 
  2.199784e-02    1.256955e+02
  4.478064e-02    1.262401e+02
  6.756343e-02    1.263605e+02
  9.034623e-02    1.275910e+02
  1.131290e-01    1.296693e+02
  1.359118e-01    1.315281e+02
  1.586946e-01    1.349584e+02
  1.814774e-01    1.393475e+02
  2.042602e-01    1.452609e+02
  2.270430e-01    1.562669e+02
  2.498258e-01    1.766407e+02
  2.726086e-01    2.128469e+02
  2.953914e-01    4.023365e+02
  3.181742e-01    6.424155e+02
  3.409570e-01    1.042088e+03
  3.637398e-01    1.472542e+03
  3.865226e-01    1.193561e+03
  4.093054e-01    8.833179e+02
  4.320881e-01    7.112794e+02
  4.548709e-01    6.342581e+02
  4.776537e-01    6.826682e+02
  5.004365e-01    7.291976e+02
  5.232193e-01    7.650728e+02
  5.460021e-01    8.127620e+02
  5.687849e-01    8.750249e+02
  5.915677e-01    9.476453e+02
  6.143505e-01    1.046658e+03
  6.371333e-01    1.161884e+03
  6.599161e-01    1.278131e+03
  6.826989e-01    1.396476e+03
  7.054817e-01    1.502540e+03
  7.282645e-01    1.586821e+03
  7.510473e-01    1.652072e+03
  7.738301e-01    1.698848e+03
  7.966129e-01    1.741382e+03
  8.193956e-01    1.785518e+03
  8.421784e-01    1.829025e+03
  8.649612e-01    1.875919e+03
  8.877440e-01    1.927683e+03
  9.105268e-01    1.979507e+03
  9.333096e-01    2.036470e+03
  9.560924e-01    2.098098e+03
  9.788752e-01    2.161631e+03
  1.001658e+00    2.231515e+03
  1.024441e+00    2.305172e+03
  1.047224e+00    2.383141e+03
  1.070006e+00    2.468617e+03
  1.092789e+00    2.558490e+03
  1.115572e+00    2.653136e+03
  1.138355e+00    2.757189e+03
  1.161138e+00    2.864793e+03
  1.183920e+00    2.978823e+03
  1.206703e+00    3.102730e+03
  1.229486e+00    3.227884e+03
  1.252269e+00    3.362602e+03
  1.275052e+00    3.506578e+03
  1.297834e+00    3.644553e+03
  1.320617e+00    3.793091e+03
  1.343400e+00    3.947517e+03
  1.366183e+00    4.099605e+03
  1.388966e+00    4.257920e+03
  1.411748e+00    4.414800e+03
  1.434531e+00    4.570064e+03
  1.457314e+00    4.723117e+03
  1.480097e+00    4.861752e+03
  1.502879e+00    4.995863e+03
  1.525662e+00    5.123039e+03
  1.548445e+00    5.234708e+03
  1.571228e+00    5.333572e+03
  1.594011e+00    5.419259e+03
  1.616793e+00    5.493186e+03
  1.639576e+00    5.545766e+03
  1.662359e+00    5.582788e+03
  1.685142e+00    5.615686e+03
  1.707925e+00    5.634290e+03
  1.730707e+00    5.643956e+03
  1.753490e+00    5.648545e+03
  1.776273e+00    5.636008e+03
  1.799056e+00    5.598933e+03
  1.821839e+00    5.534106e+03
  1.844621e+00    5.459409e+03
  1.867404e+00    5.389334e+03
  1.890187e+00    5.312561e+03
  1.912970e+00    5.242657e+03
  1.935753e+00    5.180756e+03
  1.958535e+00    5.121193e+03
  1.981318e+00    5.061934e+03
  2.004101e+00    5.003619e+03
  2.026884e+00    4.948870e+03
  2.049667e+00    4.890164e+03
  2.072449e+00    4.823851e+03
  2.095232e+00    4.761405e+03
  2.118015e+00    4.695444e+03
  2.140798e+00    4.630777e+03
  2.163581e+00    4.552879e+03
  2.186363e+00    4.467909e+03
  2.209146e+00    4.385986e+03
  2.231929e+00    4.295561e+03
  2.254712e+00    4.201538e+03
  2.277494e+00    4.108385e+03
  2.300277e+00    4.010607e+03
  2.323060e+00    3.909058e+03
  2.345843e+00    3.809831e+03
  2.368626e+00    3.708524e+03
  2.391408e+00    3.610089e+03
  2.414191e+00    3.509991e+03
  2.436974e+00    3.412889e+03
  2.459757e+00    3.323116e+03
  2.482540e+00    3.233391e+03
  2.505322e+00    3.143717e+03
  2.528105e+00    3.059305e+03
  2.550888e+00    2.982325e+03
  2.573671e+00    2.912317e+03
  2.596454e+00    2.850727e+03
  2.619236e+00    2.799317e+03
  2.642019e+00    2.752219e+03
  2.664802e+00    2.706512e+03
  2.687585e+00    2.668568e+03
  2.710368e+00    2.638034e+03
  2.733150e+00    2.619289e+03
  2.755933e+00    2.606446e+03
  2.778716e+00    2.601425e+03
  2.801499e+00    2.605611e+03
  2.824282e+00    2.611031e+03
  2.847064e+00    2.617250e+03
  2.869847e+00    2.625348e+03
  2.892630e+00    2.633386e+03
  2.915413e+00    2.637584e+03
  2.938196e+00    2.639919e+03
  2.960978e+00    2.639634e+03
  2.983761e+00    2.637526e+03
  3.006544e+00    2.633151e+03
  3.029327e+00    2.627213e+03
  3.052110e+00    2.619325e+03
  3.074892e+00    2.607589e+03
  3.097675e+00    2.594067e+03
  3.120458e+00    2.580718e+03
  3.143241e+00    2.567366e+03
  3.166023e+00    2.553858e+03
  3.188806e+00    2.540693e+03
  3.211589e+00    2.528602e+03
  3.234372e+00    2.518862e+03
  3.257155e+00    2.510625e+03
  3.279937e+00    2.504521e+03
  3.302720e+00    2.496531e+03
  3.325503e+00    2.485191e+03
  3.348286e+00    2.470710e+03
  3.371069e+00    2.454269e+03
  3.393851e+00    2.439732e+03
  3.416634e+00    2.427653e+03
  3.439417e+00    2.418824e+03
  3.462200e+00    2.416091e+03
  3.484983e+00    2.417083e+03
  3.507765e+00    2.415703e+03
  3.530548e+00    2.415346e+03
  3.553331e+00    2.415530e+03
  3.576114e+00    2.417731e+03
  3.598897e+00    2.422511e+03
  3.621679e+00    2.431220e+03
  3.644462e+00    2.445517e+03
  3.667245e+00    2.459268e+03
  3.690028e+00    2.472574e+03
  3.712811e+00    2.484714e+03
  3.735593e+00    2.495663e+03
  3.758376e+00    2.504493e+03
  3.781159e+00    2.511083e+03
  3.803942e+00    2.517228e+03
  3.826725e+00    2.522771e+03
  3.849507e+00    2.528278e+03
  3.872290e+00    2.536092e+03
  3.895073e+00    2.549640e+03
  3.917856e+00    2.559587e+03
  3.940638e+00    2.565683e+03
  3.963421e+00    2.575762e+03
  3.986204e+00    2.586736e+03
  4.008987e+00    2.596446e+03
  4.031770e+00    2.605479e+03
  4.054552e+00    2.616716e+03
  4.077335e+00    2.630455e+03
  4.100118e+00    2.636395e+03
  4.122901e+00    2.644408e+03
  4.145684e+00    2.652300e+03
  4.168466e+00    2.659458e+03
  4.191249e+00    2.665857e+03
  4.214032e+00    2.672005e+03
  4.236815e+00    2.679269e+03
  4.259598e+00    2.679327e+03
  4.282380e+00    2.669408e+03
  4.305163e+00    2.662276e+03
  4.327946e+00    2.654380e+03
  4.350729e+00    2.645938e+03
  4.373512e+00    2.637435e+03
  4.396294e+00    2.628667e+03
  4.419077e+00    2.618489e+03
  4.441860e+00    2.606003e+03
  4.464643e+00    2.595290e+03
  4.487426e+00    2.590891e+03
  4.510208e+00    2.575342e+03
  4.532991e+00    2.556767e+03
  4.555774e+00    2.542780e+03
  4.578557e+00    2.528584e+03
  4.601340e+00    2.513321e+03
  4.624122e+00    2.497129e+03
  4.646905e+00    2.483250e+03
  4.669688e+00    2.470845e+03
  4.692471e+00    2.446241e+03
  4.715253e+00    2.426217e+03
  4.738036e+00    2.408300e+03
  4.760819e+00    2.390356e+03
  4.783602e+00    2.372689e+03
  4.806385e+00    2.356375e+03
  4.829167e+00    2.346143e+03
  4.851950e+00    2.330756e+03
  4.874733e+00    2.313422e+03
  4.897516e+00    2.302419e+03
  4.920299e+00    2.292920e+03
  4.943081e+00    2.284327e+03
  4.965864e+00    2.274655e+03
  4.988647e+00    2.264453e+03
  5.011430e+00    2.253576e+03
  5.034213e+00    2.235004e+03
  5.056995e+00    2.220975e+03
  5.079778e+00    2.213237e+03
  5.102561e+00    2.195914e+03
  5.125344e+00    2.180298e+03
  5.148127e+00    2.167506e+03
  5.170909e+00    2.154624e+03
  5.193692e+00    2.140699e+03
  5.216475e+00    2.126959e+03
  5.239258e+00    2.116121e+03
  5.262041e+00    2.102193e+03
  5.284823e+00    2.081830e+03
  5.307606e+00    2.065717e+03
  5.330389e+00    2.049919e+03
  5.353172e+00    2.032903e+03
  5.375955e+00    2.014412e+03
  5.398737e+00    1.995043e+03
  5.421520e+00    1.977472e+03
  5.444303e+00    1.951716e+03
  5.467086e+00    1.926811e+03
  5.489869e+00    1.904151e+03
  5.512651e+00    1.882247e+03
  5.535434e+00    1.861159e+03
  5.558217e+00    1.841104e+03
  5.581000e+00    1.823636e+03
  5.603782e+00    1.804682e+03
  5.626565e+00    1.783031e+03
  5.649348e+00    1.766043e+03
  5.672131e+00    1.749976e+03
  5.694914e+00    1.730012e+03
  5.717696e+00    1.713733e+03
  5.740479e+00    1.699427e+03
  5.763262e+00    1.686018e+03
  5.786045e+00    1.673127e+03
  5.808828e+00    1.661842e+03
  5.831610e+00    1.653489e+03
  5.854393e+00    1.641181e+03
  5.877176e+00    1.628897e+03
  5.899959e+00    1.619692e+03
  5.922742e+00    1.611434e+03
  5.945524e+00    1.603382e+03
  5.968307e+00    1.595852e+03
  5.991090e+00    1.590538e+03
  6.013873e+00    1.583852e+03
  6.036656e+00    1.573062e+03
  6.059438e+00    1.566495e+03
  6.082221e+00    1.560890e+03
  6.105004e+00    1.550481e+03
  6.127787e+00    1.542582e+03
  6.150570e+00    1.536452e+03
  6.173352e+00    1.531284e+03
  6.196135e+00    1.523483e+03
  6.218918e+00    1.515950e+03
  6.241701e+00    1.510481e+03
  6.264484e+00    1.502661e+03
  6.287266e+00    1.494538e+03
  6.310049e+00    1.487417e+03
  6.332832e+00    1.480520e+03
  6.355615e+00    1.473045e+03
  6.378397e+00    1.465563e+03
  6.401180e+00    1.459665e+03
  6.423963e+00    1.453667e+03
  6.446746e+00    1.444918e+03
  6.469529e+00    1.437671e+03
  6.492311e+00    1.430749e+03
  6.515094e+00    1.423897e+03
  6.537877e+00    1.417112e+03
  6.560660e+00    1.410709e+03
  6.583443e+00    1.405002e+03
  6.606225e+00    1.396676e+03
  6.629008e+00    1.388337e+03
  6.651791e+00    1.381532e+03
  6.674574e+00    1.373381e+03
  6.697357e+00    1.365073e+03
  6.720139e+00    1.357978e+03
  6.742922e+00    1.351739e+03
  6.765705e+00    1.345137e+03
  6.788488e+00    1.338653e+03
  6.811271e+00    1.333428e+03
  6.834053e+00    1.327825e+03
  6.856836e+00    1.320606e+03
  6.879619e+00    1.313894e+03
  6.902402e+00    1.307340e+03
  6.925185e+00    1.300889e+03
  6.947967e+00    1.294938e+03
  6.970750e+00    1.290103e+03
  6.993533e+00    1.286182e+03
  7.016316e+00    1.281273e+03
  7.039099e+00    1.276008e+03
  7.061881e+00    1.270834e+03
  7.084664e+00    1.265836e+03
  7.107447e+00    1.261435e+03
  7.130230e+00    1.257355e+03
  7.153013e+00    1.253511e+03
  7.175795e+00    1.249586e+03
  7.198578e+00    1.245747e+03
  7.221361e+00    1.242521e+03
  7.244144e+00    1.239916e+03
  7.266926e+00    1.237899e+03
  7.289709e+00    1.236260e+03
  7.312492e+00    1.235252e+03
  7.335275e+00    1.234660e+03
  7.358058e+00    1.234384e+03
  7.380840e+00    1.234352e+03
  7.403623e+00    1.234453e+03
  7.426406e+00    1.234471e+03
  7.449189e+00    1.234811e+03
  7.471972e+00    1.235440e+03
  7.494754e+00    1.236250e+03
  7.517537e+00    1.237297e+03
  7.540320e+00    1.238983e+03
  7.563103e+00    1.240932e+03
  7.585886e+00    1.242890e+03
  7.608668e+00    1.244549e+03
  7.631451e+00    1.246188e+03
  7.654234e+00    1.247881e+03
  7.677017e+00    1.249257e+03
  7.699800e+00    1.250635e+03
  7.722582e+00    1.252307e+03
  7.745365e+00    1.253849e+03
  7.768148e+00    1.255382e+03
  7.790931e+00    1.256954e+03
  7.813714e+00    1.258384e+03
  7.836496e+00    1.259669e+03
  7.859279e+00    1.260827e+03
  7.882062e+00    1.261388e+03
  7.904845e+00    1.261443e+03
  7.927628e+00    1.260369e+03
  7.950410e+00    1.259320e+03
  7.973193e+00    1.258308e+03
  7.995976e+00    1.256981e+03
  8.018759e+00    1.255585e+03
  8.041541e+00    1.253971e+03
  8.064324e+00    1.252157e+03
  8.087107e+00    1.249710e+03
  8.109890e+00    1.247221e+03
  8.132673e+00    1.244964e+03
  8.155455e+00    1.241688e+03
  8.178238e+00    1.238261e+03
  8.201021e+00    1.235189e+03
  8.223804e+00    1.232065e+03
  8.246587e+00    1.229052e+03
  8.269369e+00    1.226077e+03
  8.292152e+00    1.222796e+03
  8.314935e+00    1.219353e+03
  8.337718e+00    1.215727e+03
  8.360501e+00    1.212487e+03
  8.383283e+00    1.209356e+03
  8.406066e+00    1.206247e+03
  8.428849e+00    1.203004e+03
  8.451632e+00    1.199419e+03
  8.474415e+00    1.195512e+03
  8.497197e+00    1.191309e+03
  8.519980e+00    1.187088e+03
  8.542763e+00    1.183137e+03
  8.565546e+00    1.179445e+03
  8.588329e+00    1.175845e+03
  8.611111e+00    1.172461e+03
  8.633894e+00    1.168575e+03
  8.656677e+00    1.165079e+03
  8.679460e+00    1.161527e+03
  8.702243e+00    1.158024e+03
  8.725025e+00    1.154844e+03
  8.747808e+00    1.151747e+03
  8.770591e+00    1.148623e+03
  8.793374e+00    1.145563e+03
  8.816156e+00    1.142029e+03
  8.838939e+00    1.138584e+03
  8.861722e+00    1.135087e+03
  8.884505e+00    1.131841e+03
  8.907288e+00    1.128577e+03
  8.930070e+00    1.125070e+03
  8.952853e+00    1.121378e+03
  8.975636e+00    1.117483e+03
  8.998419e+00    1.113632e+03
  9.021202e+00    1.109427e+03
  9.043984e+00    1.105543e+03
  9.066767e+00    1.101668e+03
  9.089550e+00    1.097649e+03
  9.112333e+00    1.093432e+03
  9.135116e+00    1.089187e+03
  9.157898e+00    1.084593e+03
  9.180681e+00    1.079934e+03
  9.203464e+00    1.075298e+03
  9.226247e+00    1.070776e+03
  9.249030e+00    1.066114e+03
  9.271812e+00    1.061847e+03
  9.294595e+00    1.057675e+03
  9.317378e+00    1.053364e+03
  9.340161e+00    1.049203e+03
  9.362944e+00    1.044643e+03
  9.385726e+00    1.039811e+03
  9.408509e+00    1.034975e+03
  9.431292e+00    1.030430e+03
  9.454075e+00    1.025761e+03
  9.476858e+00    1.021476e+03
  9.499640e+00    1.017331e+03
  9.522423e+00    1.013025e+03
  9.545206e+00    1.008386e+03
  9.567989e+00    1.003741e+03
  9.590772e+00    9.991249e+02
  9.613554e+00    9.949962e+02
  9.636337e+00    9.906646e+02
  9.659120e+00    9.866559e+02
  9.681903e+00    9.827091e+02
  9.704685e+00    9.787412e+02
  9.727468e+00    9.749290e+02
  9.750251e+00    9.711454e+02
  9.773034e+00    9.678020e+02
  9.795817e+00    9.641598e+02
  9.818599e+00    9.605488e+02
  9.841382e+00    9.569508e+02
  9.864165e+00    9.537718e+02
  9.886948e+00    9.509323e+02
  9.909731e+00    9.480811e+02
  9.932513e+00    9.452862e+02
  9.955296e+00    9.427465e+02
  9.978079e+00    9.401452e+02
  1.000086e+01    9.377515e+02
  1.002364e+01    9.353464e+02
  1.004643e+01    9.329597e+02
  1.006921e+01    9.306049e+02
  1.009199e+01    9.283124e+02
  1.011478e+01    9.262420e+02
  1.013756e+01    9.241420e+02
  1.016034e+01    9.221147e+02
  1.018312e+01    9.201919e+02
  1.020591e+01    9.181520e+02
  1.022869e+01    9.162352e+02
  1.025147e+01    9.144401e+02
  1.027426e+01    9.125597e+02
  1.029704e+01    9.108838e+02
  1.031982e+01    9.092842e+02
  1.034260e+01    9.077715e+02
  1.036539e+01    9.062601e+02
  1.038817e+01    9.047325e+02
  1.041095e+01    9.031802e+02
  1.043373e+01    9.018223e+02
  1.045652e+01    9.005317e+02
  1.047930e+01    8.990649e+02
  1.050208e+01    8.977219e+02
  1.052487e+01    8.963520e+02
  1.054765e+01    8.950223e+02
  1.057043e+01    8.937015e+02
  1.059321e+01    8.924586e+02
  1.061600e+01    8.910997e+02
  1.063878e+01    8.895488e+02
  1.066156e+01    8.880712e+02
  1.068435e+01    8.865603e+02
  1.070713e+01    8.852399e+02
  1.072991e+01    8.835469e+02
  1.075269e+01    8.818814e+02
  1.077548e+01    8.802057e+02
  1.079826e+01    8.784449e+02
  1.082104e+01    8.767018e+02
  1.084383e+01    8.749243e+02
  1.086661e+01    8.730598e+02
  1.088939e+01    8.714163e+02
  1.091217e+01    8.698337e+02
  1.093496e+01    8.682504e+02
  1.095774e+01    8.666262e+02
  1.098052e+01    8.651162e+02
  1.100330e+01    8.636176e+02
  1.102609e+01    8.620632e+02
  1.104887e+01    8.605068e+02
  1.107165e+01    8.589879e+02
  1.109444e+01    8.574460e+02
  1.111722e+01    8.559906e+02
  1.114000e+01    8.544194e+02
  1.116278e+01    8.524899e+02
  1.118557e+01    8.505926e+02
  1.120835e+01    8.490014e+02
  1.123113e+01    8.474139e+02
  1.125392e+01    8.458124e+02
  1.127670e+01    8.441903e+02
  1.129948e+01    8.427933e+02
  1.132226e+01    8.414095e+02
  1.134505e+01    8.399759e+02
  1.136783e+01    8.385620e+02
  1.139061e+01    8.373202e+02
  1.141340e+01    8.360833e+02
  1.143618e+01    8.349297e+02
  1.145896e+01    8.337942e+02
  1.148174e+01    8.326904e+02
  1.150453e+01    8.317352e+02
  1.152731e+01    8.308604e+02
  1.155009e+01    8.300912e+02
  1.157287e+01    8.292087e+02
  1.159566e+01    8.282718e+02
  1.161844e+01    8.274481e+02
  1.164122e+01    8.266045e+02
  1.166401e+01    8.258127e+02
  1.168679e+01    8.251095e+02
  1.170957e+01    8.243008e+02
  1.173235e+01    8.236209e+02
  1.175514e+01    8.229594e+02
  1.177792e+01    8.222032e+02
  1.180070e+01    8.216127e+02
  1.182349e+01    8.210992e+02
  1.184627e+01    8.205338e+02
  1.186905e+01    8.200511e+02
  1.189183e+01    8.196172e+02
  1.191462e+01    8.192532e+02
  1.193740e+01    8.188959e+02
  1.196018e+01    8.186213e+02
  1.198296e+01    8.183019e+02
  1.200575e+01    8.180463e+02
  1.202853e+01    8.177524e+02
  1.205131e+01    8.175024e+02
  1.207410e+01    8.171367e+02
  1.209688e+01    8.166818e+02
  1.211966e+01    8.161758e+02
  1.214244e+01    8.157905e+02
  1.216523e+01    8.153954e+02
  1.218801e+01    8.148569e+02
  1.221079e+01    8.143262e+02
  1.223358e+01    8.138135e+02
  1.225636e+01    8.131978e+02
  1.227914e+01    8.124978e+02
  1.230192e+01    8.117639e+02
  1.232471e+01    8.109731e+02
  1.234749e+01    8.101143e+02
  1.237027e+01    8.091743e+02
  1.239306e+01    8.082436e+02
  1.241584e+01    8.072314e+02
  1.243862e+01    8.062184e+02
  1.246140e+01    8.052342e+02
  1.248419e+01    8.041862e+02
  1.250697e+01    8.030250e+02
  1.252975e+01    8.017092e+02
  1.255253e+01    8.002412e+02
  1.257532e+01    7.988480e+02
  1.259810e+01    7.972067e+02
  1.262088e+01    7.956578e+02
  1.264367e+01    7.941315e+02
  1.266645e+01    7.926007e+02
  1.268923e+01    7.907807e+02
  1.271201e+01    7.888977e+02
  1.273480e+01    7.870722e+02
  1.275758e+01    7.852545e+02
  1.278036e+01    7.835590e+02
  1.280315e+01    7.817600e+02
  1.282593e+01    7.799688e+02
  1.284871e+01    7.782299e+02
  1.287149e+01    7.764529e+02
  1.289428e+01    7.746650e+02
  1.291706e+01    7.728336e+02
  1.293984e+01    7.709502e+02
  1.296263e+01    7.690660e+02
  1.298541e+01    7.671183e+02
  1.300819e+01    7.652131e+02
  1.303097e+01    7.632979e+02
  1.305376e+01    7.613882e+02
  1.307654e+01    7.594081e+02
  1.309932e+01    7.574395e+02
  1.312210e+01    7.555794e+02
  1.314489e+01    7.537159e+02
  1.316767e+01    7.518499e+02
  1.319045e+01    7.499930e+02
  1.321324e+01    7.481656e+02
  1.323602e+01    7.463491e+02
  1.325880e+01    7.446607e+02
  1.328158e+01    7.429988e+02
  1.330437e+01    7.412837e+02
  1.332715e+01    7.396169e+02
  1.334993e+01    7.379230e+02
  1.337272e+01    7.363044e+02
  1.339550e+01    7.346443e+02
  1.341828e+01    7.330274e+02
  1.344106e+01    7.314183e+02
  1.346385e+01    7.298693e+02
  1.348663e+01    7.284006e+02
  1.350941e+01    7.268487e+02
  1.353219e+01    7.251617e+02
  1.355498e+01    7.234664e+02
  1.357776e+01    7.216530e+02
  1.360054e+01    7.199715e+02
  1.362333e+01    7.184699e+02
  1.364611e+01    7.171102e+02
  1.366889e+01    7.156667e+02
  1.369167e+01    7.141581e+02
  1.371446e+01    7.127578e+02
  1.373724e+01    7.113979e+02
  1.376002e+01    7.100905e+02
  1.378281e+01    7.088203e+02
  1.380559e+01    7.075363e+02
  1.382837e+01    7.062258e+02
  1.385115e+01    7.050813e+02
  1.387394e+01    7.039976e+02
  1.389672e+01    7.028746e+02
  1.391950e+01    7.018293e+02
  1.394229e+01    7.007451e+02
  1.396507e+01    6.995859e+02
  1.398785e+01    6.984244e+02
  1.401063e+01    6.972104e+02
  1.403342e+01    6.961276e+02
  1.405620e+01    6.949862e+02
  1.407898e+01    6.938727e+02
  1.410176e+01    6.928474e+02
  1.412455e+01    6.918428e+02
  1.414733e+01    6.908842e+02
  1.417011e+01    6.899741e+02
  1.419290e+01    6.890036e+02
  1.421568e+01    6.881917e+02
  1.423846e+01    6.873052e+02
  1.426124e+01    6.863510e+02
  1.428403e+01    6.854437e+02
  1.430681e+01    6.844674e+02
  1.432959e+01    6.833624e+02
  1.435238e+01    6.823868e+02
  1.437516e+01    6.814987e+02
  1.439794e+01    6.806606e+02
  1.442072e+01    6.797048e+02
  1.444351e+01    6.787138e+02
  1.446629e+01    6.778199e+02
  1.448907e+01    6.770241e+02
  1.451186e+01    6.762498e+02
  1.453464e+01    6.755024e+02
  1.455742e+01    6.747324e+02
  1.458020e+01    6.738391e+02
  1.460299e+01    6.731105e+02
  1.462577e+01    6.723472e+02
  1.464855e+01    6.715713e+02
  1.467133e+01    6.707144e+02
  1.469412e+01    6.698229e+02
  1.471690e+01    6.689750e+02
  1.473968e+01    6.681074e+02
  1.476247e+01    6.673567e+02
  1.478525e+01    6.666047e+02
  1.480803e+01    6.658008e+02
  1.483081e+01    6.649631e+02
  1.485360e+01    6.641570e+02
  1.487638e+01    6.634252e+02
  1.489916e+01    6.627127e+02
  1.492195e+01    6.619705e+02
  1.494473e+01    6.611885e+02
  1.496751e+01    6.604308e+02
  1.499029e+01    6.596322e+02
  1.501308e+01    6.588796e+02
  1.503586e+01    6.583760e+02
  1.505864e+01    6.574738e+02
  1.508142e+01    6.566656e+02
  1.510421e+01    6.557814e+02
  1.512699e+01    6.548689e+02
  1.514977e+01    6.539667e+02
  1.517256e+01    6.531526e+02
  1.519534e+01    6.523364e+02
  1.521812e+01    6.515488e+02
  1.524090e+01    6.507097e+02
  1.526369e+01    6.498827e+02
  1.528647e+01    6.490800e+02
  1.530925e+01    6.483044e+02
  1.533204e+01    6.474267e+02
  1.535482e+01    6.466979e+02
  1.537760e+01    6.458828e+02
  1.540038e+01    6.450630e+02
  1.542317e+01    6.442475e+02
  1.544595e+01    6.432967e+02
  1.546873e+01    6.424185e+02
  1.549152e+01    6.415347e+02
  1.551430e+01    6.407034e+02
  1.553708e+01    6.399089e+02
  1.555986e+01    6.391033e+02
  1.558265e+01    6.382659e+02
  1.560543e+01    6.374008e+02
  1.562821e+01    6.365547e+02
  1.565099e+01    6.357255e+02
  1.567378e+01    6.348806e+02
  1.569656e+01    6.341149e+02
  1.571934e+01    6.332334e+02
  1.574213e+01    6.323834e+02
  1.576491e+01    6.315197e+02
  1.578769e+01    6.307000e+02
  1.581047e+01    6.299633e+02
  1.583326e+01    6.290468e+02
  1.585604e+01    6.281543e+02
  1.587882e+01    6.273364e+02
  1.590161e+01    6.265279e+02
  1.592439e+01    6.256326e+02
  1.594717e+01    6.248240e+02
  1.596995e+01    6.240706e+02
  1.599274e+01    6.233563e+02
  1.601552e+01    6.226576e+02
  1.603830e+01    6.218794e+02
  1.606109e+01    6.210576e+02
  1.608387e+01    6.203806e+02
  1.610665e+01    6.196101e+02
  1.612943e+01    6.189484e+02
  1.615222e+01    6.182169e+02
  1.617500e+01    6.173647e+02
  1.619778e+01    6.166843e+02
  1.622056e+01    6.159678e+02
  1.624335e+01    6.152398e+02
  1.626613e+01    6.145679e+02
  1.628891e+01    6.137955e+02
  1.631170e+01    6.130715e+02
  1.633448e+01    6.123515e+02
  1.635726e+01    6.116803e+02
  1.638004e+01    6.109914e+02
  1.640283e+01    6.103041e+02
  1.642561e+01    6.095405e+02
  1.644839e+01    6.088311e+02
  1.647118e+01    6.080819e+02
  1.649396e+01    6.073370e+02
  1.651674e+01    6.065764e+02
  1.653952e+01    6.058880e+02
  1.656231e+01    6.051420e+02
  1.658509e+01    6.042562e+02
  1.660787e+01    6.035182e+02
  1.663065e+01    6.028274e+02
  1.665344e+01    6.020601e+02
  1.667622e+01    6.012054e+02
  1.669900e+01    6.004716e+02
  1.672179e+01    5.996726e+02
  1.674457e+01    5.987801e+02
  1.676735e+01    5.979771e+02
  1.679013e+01    5.970555e+02
  1.681292e+01    5.961437e+02
  1.683570e+01    5.952991e+02
  1.685848e+01    5.944177e+02
  1.688127e+01    5.934689e+02
  1.690405e+01    5.925833e+02
  1.692683e+01    5.917573e+02
  1.694961e+01    5.907790e+02
  1.697240e+01    5.898007e+02
  1.699518e+01    5.888601e+02
  1.701796e+01    5.879042e+02
  1.704075e+01    5.869108e+02
  1.706353e+01    5.858615e+02
  1.708631e+01    5.848665e+02
  1.710909e+01    5.838484e+02
  1.713188e+01    5.828036e+02
  1.715466e+01    5.817575e+02
  1.717744e+01    5.806736e+02
  1.720022e+01    5.795821e+02
  1.722301e+01    5.786248e+02
  1.724579e+01    5.775562e+02
  1.726857e+01    5.765402e+02
  1.729136e+01    5.755518e+02
  1.731414e+01    5.745309e+02
  1.733692e+01    5.734713e+02
  1.735970e+01    5.724351e+02
  1.738249e+01    5.713416e+02
  1.740527e+01    5.702426e+02
  1.742805e+01    5.692039e+02
  1.745084e+01    5.681451e+02
  1.747362e+01    5.671234e+02
  1.749640e+01    5.661185e+02
  1.751918e+01    5.650293e+02
  1.754197e+01    5.638841e+02
  1.756475e+01    5.628638e+02
  1.758753e+01    5.618953e+02
  1.761032e+01    5.608761e+02
  1.763310e+01    5.599011e+02
  1.765588e+01    5.589081e+02
  1.767866e+01    5.580181e+02
  1.770145e+01    5.569742e+02
  1.772423e+01    5.560157e+02
  1.774701e+01    5.550769e+02
  1.776979e+01    5.541010e+02
  1.779258e+01    5.531770e+02
  1.781536e+01    5.522490e+02
  1.783814e+01    5.513152e+02
  1.786093e+01    5.504903e+02
  1.788371e+01    5.496147e+02
  1.790649e+01    5.486565e+02
  1.792927e+01    5.477261e+02
  1.795206e+01    5.469048e+02
  1.797484e+01    5.460541e+02
  1.799762e+01    5.451219e+02
  1.802041e+01    5.442426e+02
  1.804319e+01    5.434315e+02
  1.806597e+01    5.425822e+02
  1.808875e+01    5.417937e+02
  1.811154e+01    5.409838e+02
  1.813432e+01    5.401108e+02
  1.815710e+01    5.393389e+02
  1.817989e+01    5.385671e+02
  1.820267e+01    5.377427e+02
  1.822545e+01    5.369168e+02
  1.824823e+01    5.361683e+02
  1.827102e+01    5.354094e+02
  1.829380e+01    5.346249e+02
  1.831658e+01    5.338279e+02
  1.833936e+01    5.330560e+02
  1.836215e+01    5.322736e+02
  1.838493e+01    5.315007e+02
  1.840771e+01    5.307466e+02
  1.843050e+01    5.300631e+02
  1.845328e+01    5.292855e+02
  1.847606e+01    5.285951e+02
  1.849884e+01    5.278873e+02
  1.852163e+01    5.271531e+02
  1.854441e+01    5.264573e+02
  1.856719e+01    5.257446e+02
  1.858998e+01    5.250466e+02
  1.861276e+01    5.243354e+02
  1.863554e+01    5.236368e+02
  1.865832e+01    5.229381e+02
  1.868111e+01    5.222345e+02
  1.870389e+01    5.215339e+02
  1.872667e+01    5.208896e+02
  1.874945e+01    5.201587e+02
  1.877224e+01    5.195032e+02
  1.879502e+01    5.188677e+02
  1.881780e+01    5.182256e+02
  1.884059e+01    5.175637e+02
  1.886337e+01    5.169136e+02
  1.888615e+01    5.162801e+02
  1.890893e+01    5.156263e+02
  1.893172e+01    5.149646e+02
  1.895450e+01    5.143231e+02
  1.897728e+01    5.136210e+02
  1.900007e+01    5.129389e+02
  1.902285e+01    5.122998e+02
  1.904563e+01    5.116650e+02
  1.906841e+01    5.110105e+02
  1.909120e+01    5.103464e+02
  1.911398e+01    5.096662e+02
  1.913676e+01    5.090327e+02
  1.915955e+01    5.083148e+02
  1.918233e+01    5.076528e+02
  1.920511e+01    5.070369e+02
  1.922789e+01    5.063788e+02
  1.925068e+01    5.056563e+02
  1.927346e+01    5.049871e+02
  1.929624e+01    5.042573e+02
  1.931902e+01    5.035741e+02
  1.934181e+01    5.029552e+02
  1.936459e+01    5.022858e+02
  1.938737e+01    5.015843e+02
  1.941016e+01    5.009624e+02
  1.943294e+01    5.002622e+02
  1.945572e+01    4.995665e+02
  1.947850e+01    4.988686e+02
  1.950129e+01    4.981635e+02
  1.952407e+01    4.975280e+02
  1.954685e+01    4.968999e+02
  1.956964e+01    4.962235e+02
  1.959242e+01    4.955356e+02
  1.961520e+01    4.948501e+02
  1.963798e+01    4.941688e+02
  1.966077e+01    4.935027e+02
  1.968355e+01    4.928070e+02
  1.970633e+01    4.920988e+02
  1.972912e+01    4.913640e+02
  1.975190e+01    4.906798e+02
  1.977468e+01    4.899583e+02
  1.979746e+01    4.892661e+02
  1.982025e+01    4.885519e+02
  1.984303e+01    4.878426e+02
  1.986581e+01    4.871410e+02
  1.988859e+01    4.863864e+02
  1.991138e+01    4.856103e+02
  1.993416e+01    4.848888e+02
  1.995694e+01    4.841948e+02
  1.997973e+01    4.834564e+02
  2.000251e+01    4.827393e+02
  2.002529e+01    4.819754e+02
  2.004807e+01    4.812680e+02
  2.007086e+01    4.805093e+02
  2.009364e+01    4.796984e+02
  2.011642e+01    4.789359e+02
  2.013921e+01    4.782269e+02
  2.016199e+01    4.773572e+02
  2.018477e+01    4.765808e+02
  2.020755e+01    4.758349e+02
  2.023034e+01    4.750589e+02
  2.025312e+01    4.742694e+02
  2.027590e+01    4.735277e+02
  2.029868e+01    4.727284e+02
  2.032147e+01    4.719082e+02
  2.034425e+01    4.711076e+02
  2.036703e+01    4.703344e+02
  2.038982e+01    4.696170e+02
  2.041260e+01    4.687757e+02
  2.043538e+01    4.680562e+02
  2.045816e+01    4.672491e+02
  2.048095e+01    4.664893e+02
  2.050373e+01    4.657358e+02
  2.052651e+01    4.650030e+02
  2.054930e+01    4.642304e+02
  2.057208e+01    4.634778e+02
  2.059486e+01    4.627972e+02
  2.061764e+01    4.621223e+02
  2.064043e+01    4.614225e+02
  2.066321e+01    4.606522e+02
  2.068599e+01    4.599012e+02
  2.070878e+01    4.592047e+02
  2.073156e+01    4.584788e+02
  2.075434e+01    4.577014e+02
  2.077712e+01    4.569478e+02
  2.079991e+01    4.561797e+02
  2.082269e+01    4.554494e+02
  2.084547e+01    4.547094e+02
  2.086825e+01    4.539247e+02
  2.089104e+01    4.531992e+02
  2.091382e+01    4.524265e+02
  2.093660e+01    4.516846e+02
  2.095939e+01    4.509462e+02
  2.098217e+01    4.501742e+02
  2.100495e+01    4.494868e+02
  2.102773e+01    4.487924e+02
  2.105052e+01    4.480356e+02
  2.107330e+01    4.472244e+02
  2.109608e+01    4.464705e+02
  2.111887e+01    4.457217e+02
  2.114165e+01    4.449770e+02
  2.116443e+01    4.442275e+02
  2.118721e+01    4.434637e+02
  2.121000e+01    4.427371e+02
  2.123278e+01    4.420038e+02
  2.125556e+01    4.412590e+02
  2.127835e+01    4.404687e+02
  2.130113e+01    4.396852e+02
  2.132391e+01    4.390061e+02
  2.134669e+01    4.381996e+02
  2.136948e+01    4.375151e+02
  2.139226e+01    4.368122e+02
  2.141504e+01    4.362355e+02
  2.143782e+01    4.357149e+02
  2.146061e+01    4.347659e+02
  2.148339e+01    4.340140e+02
  2.150617e+01    4.332217e+02
  2.152896e+01    4.324559e+02
  2.155174e+01    4.317229e+02
  2.157452e+01    4.309918e+02
  2.159730e+01    4.302051e+02
  2.162009e+01    4.294586e+02
  2.164287e+01    4.286716e+02
  2.166565e+01    4.279576e+02
  2.168844e+01    4.272342e+02
  2.171122e+01    4.264875e+02
  2.173400e+01    4.257645e+02
  2.175678e+01    4.250217e+02
  2.177957e+01    4.243258e+02
  2.180235e+01    4.235923e+02
  2.182513e+01    4.228532e+02
  2.184791e+01    4.220985e+02
  2.187070e+01    4.213746e+02
  2.189348e+01    4.206875e+02
  2.191626e+01    4.199532e+02
  2.193905e+01    4.191985e+02
  2.196183e+01    4.185029e+02
  2.198461e+01    4.177983e+02
  2.200739e+01    4.171453e+02
  2.203018e+01    4.164086e+02
  2.205296e+01    4.157086e+02
  2.207574e+01    4.149540e+02
  2.209853e+01    4.142786e+02
  2.212131e+01    4.135445e+02
  2.214409e+01    4.128331e+02
  2.216687e+01    4.121282e+02
  2.218966e+01    4.114235e+02
  2.221244e+01    4.107347e+02
  2.223522e+01    4.100243e+02
  2.225801e+01    4.093071e+02
  2.228079e+01    4.086887e+02
  2.230357e+01    4.079409e+02
  2.232635e+01    4.072695e+02
  2.234914e+01    4.065669e+02
  2.237192e+01    4.059226e+02
  2.239470e+01    4.052227e+02
  2.241748e+01    4.045956e+02
  2.244027e+01    4.038683e+02
  2.246305e+01    4.031604e+02
  2.248583e+01    4.024236e+02
  2.250862e+01    4.017691e+02
  2.253140e+01    4.011364e+02
  2.255418e+01    4.004545e+02
  2.257696e+01    3.997869e+02
  2.259975e+01    3.991403e+02
  2.262253e+01    3.984481e+02
  2.264531e+01    3.977697e+02
  2.266810e+01    3.970885e+02
  2.269088e+01    3.964229e+02
  2.271366e+01    3.957638e+02
  2.273644e+01    3.951903e+02
  2.275923e+01    3.945480e+02
  2.278201e+01    3.938735e+02
  2.280479e+01    3.932101e+02
  2.282758e+01    3.925093e+02
  2.285036e+01    3.918587e+02
  2.287314e+01    3.912547e+02
  2.289592e+01    3.906449e+02
  2.291871e+01    3.899628e+02
  2.294149e+01    3.893448e+02
  2.296427e+01    3.886778e+02
  2.298705e+01    3.880010e+02
  2.300984e+01    3.873695e+02
  2.303262e+01    3.866979e+02
  2.305540e+01    3.860508e+02
  2.307819e+01    3.853557e+02
  2.310097e+01    3.847024e+02
  2.312375e+01    3.840296e+02
  2.314653e+01    3.833923e+02
  2.316932e+01    3.827997e+02
  2.319210e+01    3.821046e+02
  2.321488e+01    3.814344e+02
  2.323767e+01    3.807957e+02
  2.326045e+01    3.801482e+02
  2.328323e+01    3.795109e+02
  2.330601e+01    3.789356e+02
  2.332880e+01    3.782635e+02
  2.335158e+01    3.775894e+02
  2.337436e+01    3.769524e+02
  2.339714e+01    3.762941e+02
  2.341993e+01    3.756805e+02
  2.344271e+01    3.750496e+02
  2.346549e+01    3.743760e+02
  2.348828e+01    3.737448e+02
  2.351106e+01    3.730920e+02
  2.353384e+01    3.724605e+02
  2.355662e+01    3.717807e+02
  2.357941e+01    3.711461e+02
  2.360219e+01    3.705139e+02
  2.362497e+01    3.698270e+02
  2.364776e+01    3.692299e+02
  2.367054e+01    3.685951e+02
  2.369332e+01    3.681647e+02
  2.371610e+01    3.676511e+02
  2.373889e+01    3.668532e+02
  2.376167e+01    3.661120e+02
  2.378445e+01    3.653953e+02
  2.380724e+01    3.647147e+02
  2.383002e+01    3.640691e+02
  2.385280e+01    3.633772e+02
  2.387558e+01    3.626794e+02
  2.389837e+01    3.620824e+02
  2.392115e+01    3.613927e+02
  2.394393e+01    3.606822e+02
  2.396671e+01    3.599725e+02
  2.398950e+01    3.593438e+02
  2.401228e+01    3.586985e+02
  2.403506e+01    3.580584e+02
  2.405785e+01    3.573829e+02
  2.408063e+01    3.567482e+02
  2.410341e+01    3.561039e+02
  2.412619e+01    3.553976e+02
  2.414898e+01    3.547533e+02
  2.417176e+01    3.540900e+02
  2.419454e+01    3.534539e+02
  2.421733e+01    3.527896e+02
  2.424011e+01    3.521501e+02
  2.426289e+01    3.515017e+02
  2.428567e+01    3.508568e+02
  2.430846e+01    3.501803e+02
  2.433124e+01    3.495231e+02
  2.435402e+01    3.488741e+02
  2.437681e+01    3.481861e+02
  2.439959e+01    3.474898e+02
  2.442237e+01    3.468612e+02
  2.444515e+01    3.461735e+02
  2.446794e+01    3.454566e+02
  2.449072e+01    3.448223e+02
  2.451350e+01    3.441983e+02
  2.453628e+01    3.435097e+02
  2.455907e+01    3.428633e+02
  2.458185e+01    3.421927e+02
  2.460463e+01    3.415088e+02
  2.462742e+01    3.408224e+02
  2.465020e+01    3.401654e+02
  2.467298e+01    3.394644e+02
  2.469576e+01    3.388494e+02
  2.471855e+01    3.381844e+02
  2.474133e+01    3.374711e+02
  2.476411e+01    3.368434e+02
  2.478690e+01    3.362130e+02
  2.480968e+01    3.355291e+02
  2.483246e+01    3.348943e+02
  2.485524e+01    3.342040e+02
  2.487803e+01    3.335644e+02
  2.490081e+01    3.328528e+02
  2.492359e+01    3.322074e+02
  2.494637e+01    3.315346e+02
  2.496916e+01    3.308699e+02
  2.499194e+01    3.302348e+02
  2.501472e+01    3.295361e+02
  2.503751e+01    3.288184e+02
  2.506029e+01    3.281761e+02
  2.508307e+01    3.275565e+02
  2.510585e+01    3.268893e+02
  2.512864e+01    3.261983e+02
  2.515142e+01    3.255232e+02
  2.517420e+01    3.248441e+02
  2.519699e+01    3.242000e+02
  2.521977e+01    3.235496e+02
  2.524255e+01    3.228958e+02
  2.526533e+01    3.222496e+02
  2.528812e+01    3.216273e+02
  2.531090e+01    3.209507e+02
  2.533368e+01    3.203181e+02
  2.535647e+01    3.197142e+02
  2.537925e+01    3.190826e+02
  2.540203e+01    3.184626e+02
  2.542481e+01    3.178490e+02
  2.544760e+01    3.172126e+02
  2.547038e+01    3.165822e+02
  2.549316e+01    3.159403e+02
  2.551594e+01    3.153120e+02
  2.553873e+01    3.146990e+02
  2.556151e+01    3.140559e+02
  2.558429e+01    3.133836e+02
  2.560708e+01    3.128086e+02
  2.562986e+01    3.121574e+02
  2.565264e+01    3.114599e+02
  2.567542e+01    3.108383e+02
  2.569821e+01    3.102307e+02
  2.572099e+01    3.096133e+02
  2.574377e+01    3.089753e+02
  2.576656e+01    3.083813e+02
  2.578934e+01    3.077754e+02
  2.581212e+01    3.071288e+02
  2.583490e+01    3.065544e+02
  2.585769e+01    3.058910e+02
  2.588047e+01    3.052937e+02
  2.590325e+01    3.046640e+02
  2.592604e+01    3.040373e+02
  2.594882e+01    3.034042e+02
  2.597160e+01    3.028393e+02
  2.599438e+01    3.021774e+02
  2.601717e+01    3.015776e+02
  2.603995e+01    3.009675e+02
  2.606273e+01    3.004042e+02
  2.608551e+01    2.997973e+02
  2.610830e+01    2.991844e+02
  2.613108e+01    2.985620e+02
  2.615386e+01    2.979590e+02
  2.617665e+01    2.973338e+02
  2.619943e+01    2.966986e+02
  2.622221e+01    2.960674e+02
  2.624499e+01    2.954894e+02
  2.626778e+01    2.948866e+02
  2.629056e+01    2.943080e+02
  2.631334e+01    2.937240e+02
  2.633613e+01    2.931494e+02
  2.635891e+01    2.925211e+02
  2.638169e+01    2.918694e+02
  2.640447e+01    2.912633e+02
  2.642726e+01    2.906249e+02
  2.645004e+01    2.899965e+02
  2.647282e+01    2.893879e+02
  2.649560e+01    2.887875e+02
  2.651839e+01    2.881856e+02
  2.654117e+01    2.876556e+02
  2.656395e+01    2.870318e+02
  2.658674e+01    2.864179e+02
  2.660952e+01    2.857591e+02
  2.663230e+01    2.851757e+02
  2.665508e+01    2.845597e+02
  2.667787e+01    2.839706e+02
  2.670065e+01    2.833697e+02
  2.672343e+01    2.827913e+02
  2.674622e+01    2.822016e+02
  2.676900e+01    2.815928e+02
  2.679178e+01    2.809954e+02
  2.681456e+01    2.803906e+02
  2.683735e+01    2.797764e+02
  2.686013e+01    2.791846e+02
  2.688291e+01    2.785687e+02
  2.690570e+01    2.779700e+02
  2.692848e+01    2.773654e+02
  2.695126e+01    2.767522e+02
  2.697404e+01    2.761473e+02
  2.699683e+01    2.755752e+02
  2.701961e+01    2.749698e+02
  2.704239e+01    2.743620e+02
  2.706517e+01    2.737743e+02
  2.708796e+01    2.731294e+02
  2.711074e+01    2.724952e+02
  2.713352e+01    2.719178e+02
  2.715631e+01    2.712960e+02
  2.717909e+01    2.707238e+02
  2.720187e+01    2.704316e+02
  2.722465e+01    2.707378e+02
  2.724744e+01    2.706058e+02
  2.727022e+01    2.703727e+02
  2.729300e+01    2.700498e+02
  2.731579e+01    2.697057e+02
  2.733857e+01    2.693535e+02
  2.736135e+01    2.689820e+02
  2.738413e+01    2.685475e+02
  2.740692e+01    2.680874e+02
  2.742970e+01    2.671502e+02
  2.745248e+01    2.662892e+02
  2.747527e+01    2.655541e+02
  2.749805e+01    2.648860e+02
  2.752083e+01    2.642134e+02
  2.754361e+01    2.635153e+02
  2.756640e+01    2.628775e+02
  2.758918e+01    2.620983e+02
  2.761196e+01    2.606852e+02
  2.763474e+01    2.594973e+02
  2.765753e+01    2.584320e+02
  2.768031e+01    2.574341e+02
  2.770309e+01    2.564272e+02
  2.772588e+01    2.554878e+02
  2.774866e+01    2.545326e+02
  2.777144e+01    2.535831e+02
  2.779422e+01    2.532747e+02
  2.781701e+01    2.534970e+02
  2.783979e+01    2.531779e+02
  2.786257e+01    2.527787e+02
  2.788536e+01    2.524082e+02
  2.790814e+01    2.519599e+02
  2.793092e+01    2.514620e+02
  2.795370e+01    2.509566e+02
  2.797649e+01    2.504369e+02
  2.799927e+01    2.499424e+02
  2.802205e+01    2.494177e+02
  2.804483e+01    2.488678e+02
  2.806762e+01    2.483540e+02
  2.809040e+01    2.478672e+02
  2.811318e+01    2.472804e+02
  2.813597e+01    2.467820e+02
  2.815875e+01    2.462900e+02
  2.818153e+01    2.456711e+02
  2.820431e+01    2.450944e+02
  2.822710e+01    2.445459e+02
  2.824988e+01    2.440193e+02
  2.827266e+01    2.435302e+02
  2.829545e+01    2.429470e+02
  2.831823e+01    2.424147e+02
  2.834101e+01    2.418817e+02
  2.836379e+01    2.413303e+02
  2.838658e+01    2.407286e+02
  2.840936e+01    2.401803e+02
  2.843214e+01    2.396398e+02
  2.845493e+01    2.390719e+02
  2.847771e+01    2.385195e+02
  2.850049e+01    2.379290e+02
  2.852327e+01    2.374046e+02
  2.854606e+01    2.368606e+02
  2.856884e+01    2.362697e+02
  2.859162e+01    2.357182e+02
  2.861440e+01    2.352000e+02
  2.863719e+01    2.346617e+02
  2.865997e+01    2.341371e+02
  2.868275e+01    2.335257e+02
  2.870554e+01    2.329773e+02
  2.872832e+01    2.324391e+02
  2.875110e+01    2.318772e+02
  2.877388e+01    2.313662e+02
  2.879667e+01    2.307901e+02
  2.881945e+01    2.302038e+02
  2.884223e+01    2.296456e+02
  2.886502e+01    2.290855e+02
  2.888780e+01    2.285088e+02
  2.891058e+01    2.279444e+02
  2.893336e+01    2.274464e+02
  2.895615e+01    2.268486e+02
  2.897893e+01    2.263323e+02
  2.900171e+01    2.258300e+02
  2.902450e+01    2.252424e+02
  2.904728e+01    2.246886e+02
  2.907006e+01    2.241570e+02
  2.909284e+01    2.235859e+02
  2.911563e+01    2.230093e+02
  2.913841e+01    2.224890e+02
  2.916119e+01    2.219498e+02
  2.918397e+01    2.213858e+02
  2.920676e+01    2.208600e+02
  2.922954e+01    2.202278e+02
  2.925232e+01    2.197053e+02
  2.927511e+01    2.191400e+02
  2.929789e+01    2.185577e+02
  2.932067e+01    2.180088e+02
  2.934345e+01    2.174821e+02
  2.936624e+01    2.169668e+02
  2.938902e+01    2.164201e+02
  2.941180e+01    2.158696e+02
  2.943459e+01    2.153109e+02
  2.945737e+01    2.147814e+02
  2.948015e+01    2.142677e+02
  2.950293e+01    2.137571e+02
  2.952572e+01    2.131494e+02
  2.954850e+01    2.126661e+02
  2.957128e+01    2.121189e+02
  2.959407e+01    2.115544e+02
  2.961685e+01    2.109967e+02
  2.963963e+01    2.105273e+02
  2.966241e+01    2.100165e+02
  2.968520e+01    2.094324e+02
  2.970798e+01    2.089262e+02
  2.973076e+01    2.083690e+02
  2.975354e+01    2.078514e+02
  2.977633e+01    2.072813e+02
  2.979911e+01    2.067657e+02
  2.982189e+01    2.062803e+02
  2.984468e+01    2.057694e+02
  2.986746e+01    2.052071e+02
  2.989024e+01    2.046859e+02
  2.991302e+01    2.041962e+02
  2.993581e+01    2.036334e+02
  2.995859e+01    2.031237e+02
  2.998137e+01    2.026927e+02
  3.000416e+01    2.021276e+02
  3.002694e+01    2.016169e+02
  3.004972e+01    2.010941e+02
  3.007250e+01    2.005500e+02
  3.009529e+01    2.000140e+02
  3.011807e+01    1.994758e+02
  3.014085e+01    1.989639e+02
  3.016363e+01    1.984911e+02
  3.018642e+01    1.979677e+02
  3.020920e+01    1.974312e+02
  3.023198e+01    1.969222e+02
  3.025477e+01    1.964626e+02
  3.027755e+01    1.959159e+02
  3.030033e+01    1.954351e+02
  3.032311e+01    1.949874e+02
  3.034590e+01    1.945021e+02
  3.036868e+01    1.939621e+02
  3.039146e+01    1.934644e+02
  3.041425e+01    1.928741e+02
  3.043703e+01    1.925136e+02
  3.045981e+01    1.920424e+02
  3.048259e+01    1.914168e+02
  3.050538e+01    1.909536e+02
  3.052816e+01    1.904278e+02
  3.055094e+01    1.899799e+02
  3.057373e+01    1.894169e+02
  3.059651e+01    1.889119e+02
  3.061929e+01    1.884937e+02
  3.064207e+01    1.880282e+02
  3.066486e+01    1.874164e+02
  3.068764e+01    1.869847e+02
  3.071042e+01    1.864741e+02
  3.073320e+01    1.860127e+02
  3.075599e+01    1.854886e+02
  3.077877e+01    1.849940e+02
  3.080155e+01    1.844887e+02
  3.082434e+01    1.839408e+02
  3.084712e+01    1.835231e+02
  3.086990e+01    1.830020e+02
  3.089268e+01    1.825318e+02
  3.091547e+01    1.819433e+02
  3.093825e+01    1.815244e+02
  3.096103e+01    1.810993e+02
  3.098382e+01    1.805831e+02
  3.100660e+01    1.800970e+02
  3.102938e+01    1.795762e+02
  3.105216e+01    1.791406e+02
  3.107495e+01    1.786146e+02
  3.109773e+01    1.781772e+02
  3.112051e+01    1.778021e+02
  3.114330e+01    1.772056e+02
  3.116608e+01    1.766400e+02
  3.118886e+01    1.763845e+02
  3.121164e+01    1.757999e+02
  3.123443e+01    1.753828e+02
  3.125721e+01    1.750060e+02
  3.127999e+01    1.744296e+02
  3.130277e+01    1.739415e+02
  3.132556e+01    1.735244e+02
  3.134834e+01    1.731070e+02
  3.137112e+01    1.726384e+02
  3.139391e+01    1.721380e+02
  3.141669e+01    1.716739e+02
  3.143947e+01    1.712369e+02
  3.146225e+01    1.707388e+02
  3.148504e+01    1.702592e+02
  3.150782e+01    1.697077e+02
  3.153060e+01    1.693891e+02
  3.155339e+01    1.689446e+02
  3.157617e+01    1.684798e+02
  3.159895e+01    1.679067e+02
  3.162173e+01    1.675163e+02
  3.164452e+01    1.671046e+02
  3.166730e+01    1.667454e+02
  3.169008e+01    1.662429e+02
  3.171286e+01    1.656745e+02
  3.173565e+01    1.652988e+02
  3.175843e+01    1.648326e+02
  3.178121e+01    1.643642e+02
  3.180400e+01    1.638654e+02
  3.182678e+01    1.633580e+02
  3.184956e+01    1.628839e+02
  3.187234e+01    1.622847e+02
  3.189513e+01    1.621082e+02
  3.191791e+01    1.616498e+02
  3.194069e+01    1.611312e+02
  3.196348e+01    1.607023e+02
  3.198626e+01    1.602204e+02
  3.200904e+01    1.596437e+02
  3.203182e+01    1.591509e+02
  3.205461e+01    1.588810e+02
  3.207739e+01    1.583526e+02
  3.210017e+01    1.578095e+02
  3.212296e+01    1.574200e+02
  3.214574e+01    1.569590e+02
  3.216852e+01    1.563923e+02
  3.219130e+01    1.558694e+02
  3.221409e+01    1.555208e+02
  3.223687e+01    1.549859e+02
  3.225965e+01    1.545558e+02
  3.228243e+01    1.540502e+02
  3.230522e+01    1.534581e+02
  3.232800e+01    1.529068e+02
  3.235078e+01    1.525202e+02
  3.237357e+01    1.520215e+02
  3.239635e+01    1.516213e+02
  3.241913e+01    1.511293e+02
  3.244191e+01    1.506274e+02
  3.246470e+01    1.500050e+02
  3.248748e+01    1.496440e+02
  3.251026e+01    1.491615e+02
  3.253305e+01    1.487249e+02
  3.255583e+01    1.480976e+02
  3.257861e+01    1.475524e+02
  3.260139e+01    1.470520e+02
  3.262418e+01    1.465077e+02
  3.264696e+01    1.460617e+02
  3.266974e+01    1.455389e+02
  3.269253e+01    1.450347e+02
  3.271531e+01    1.446026e+02
  3.273809e+01    1.440559e+02
  3.276087e+01    1.434953e+02
  3.278366e+01    1.430452e+02
  3.280644e+01    1.425896e+02
  3.282922e+01    1.420515e+02
  3.285200e+01    1.413839e+02
  3.287479e+01    1.410750e+02
  3.289757e+01    1.404206e+02
  3.292035e+01    1.399877e+02
  3.294314e+01    1.393855e+02
  3.296592e+01    1.388328e+02
  3.298870e+01    1.384000e+02
  3.301148e+01    1.378209e+02
  3.303427e+01    1.370966e+02
  3.305705e+01    1.366436e+02
  3.307983e+01    1.361897e+02
  3.310262e+01    1.355678e+02
  3.312540e+01    1.351802e+02
  3.314818e+01    1.344461e+02
  3.317096e+01    1.339253e+02
  3.319375e+01    1.335649e+02
  3.321653e+01    1.329922e+02
  3.323931e+01    1.324683e+02
  3.326209e+01    1.320538e+02
  3.328488e+01    1.314183e+02
  3.330766e+01    1.308612e+02
  3.333044e+01    1.298437e+02
  3.335323e+01    1.296267e+02
  3.337601e+01    1.292187e+02
  3.339879e+01    1.287318e+02
  3.342157e+01    1.281985e+02
  3.344436e+01    1.274866e+02
  3.346714e+01    1.273359e+02
  3.348992e+01    1.262980e+02
  3.351271e+01    1.245748e+02
  3.353549e+01    0.000000e+00
  3.355827e+01    0.000000e+00
  3.358105e+01    0.000000e+00
  3.360384e+01    0.000000e+00
  3.362662e+01    0.000000e+00
  3.364940e+01    0.000000e+00
  3.367219e+01    0.000000e+00
  3.369497e+01    0.000000e+00
  3.371775e+01    0.000000e+00
