# == pyFAI calibration ==
# Distance Sample to Detector: 0.21311058206280517 m
# PONI: 2.037e-01, 1.993e-01 m
# Rotations: -0.005459 0.000134 0.000000 rad
# 
# == Fit2d calibration ==
# Distance Sample-beamCenter: 213.114 mm
# Center: x=1002.134, y=1018.730 pix
# Tilt: 0.313 deg  TiltPlanRot: 1.411 deg
# 
# Detector Perkin detector	 PixelSize= 2.000e-04, 2.000e-04 m
#    Detector has a mask: False 
#    Detector has a dark current: False 
#    detector has a flat field: False 
# 
# Wavelength: 1.675e-11 m
# Mask applied: provided
# Dark current applied: False
# Flat field applied: False
# Polarization factor: None
# Normalization factor: 1.0
# --> data/chi_bkgsub_false/C_Tatania1-46.8-average.chi
#        q_A^-1             I 
  2.199784e-02    1.257732e+02
  4.478064e-02    1.266893e+02
  6.756343e-02    1.266951e+02
  9.034623e-02    1.281012e+02
  1.131290e-01    1.305347e+02
  1.359118e-01    1.322436e+02
  1.586946e-01    1.353605e+02
  1.814774e-01    1.399769e+02
  2.042602e-01    1.454979e+02
  2.270430e-01    1.555128e+02
  2.498258e-01    1.777731e+02
  2.726086e-01    2.164897e+02
  2.953914e-01    4.211012e+02
  3.181742e-01    6.609221e+02
  3.409570e-01    1.037535e+03
  3.637398e-01    1.448779e+03
  3.865226e-01    1.182874e+03
  4.093054e-01    8.833282e+02
  4.320881e-01    7.124698e+02
  4.548709e-01    6.354039e+02
  4.776537e-01    6.832249e+02
  5.004365e-01    7.298246e+02
  5.232193e-01    7.665963e+02
  5.460021e-01    8.158093e+02
  5.687849e-01    8.793406e+02
  5.915677e-01    9.394348e+02
  6.143505e-01    1.031131e+03
  6.371333e-01    1.155319e+03
  6.599161e-01    1.275709e+03
  6.826989e-01    1.399511e+03
  7.054817e-01    1.505268e+03
  7.282645e-01    1.589633e+03
  7.510473e-01    1.655975e+03
  7.738301e-01    1.703330e+03
  7.966129e-01    1.745851e+03
  8.193956e-01    1.790252e+03
  8.421784e-01    1.834385e+03
  8.649612e-01    1.881760e+03
  8.877440e-01    1.933585e+03
  9.105268e-01    1.985886e+03
  9.333096e-01    2.043072e+03
  9.560924e-01    2.104793e+03
  9.788752e-01    2.168960e+03
  1.001658e+00    2.239547e+03
  1.024441e+00    2.313618e+03
  1.047224e+00    2.392085e+03
  1.070006e+00    2.478443e+03
  1.092789e+00    2.569258e+03
  1.115572e+00    2.664126e+03
  1.138355e+00    2.768683e+03
  1.161138e+00    2.877154e+03
  1.183920e+00    2.992562e+03
  1.206703e+00    3.117494e+03
  1.229486e+00    3.243821e+03
  1.252269e+00    3.379874e+03
  1.275052e+00    3.525113e+03
  1.297834e+00    3.663974e+03
  1.320617e+00    3.813609e+03
  1.343400e+00    3.969577e+03
  1.366183e+00    4.123141e+03
  1.388966e+00    4.282921e+03
  1.411748e+00    4.441744e+03
  1.434531e+00    4.599047e+03
  1.457314e+00    4.754831e+03
  1.480097e+00    4.896538e+03
  1.502879e+00    5.033305e+03
  1.525662e+00    5.162910e+03
  1.548445e+00    5.275436e+03
  1.571228e+00    5.374535e+03
  1.594011e+00    5.459988e+03
  1.616793e+00    5.534353e+03
  1.639576e+00    5.586946e+03
  1.662359e+00    5.621974e+03
  1.685142e+00    5.649334e+03
  1.707925e+00    5.656885e+03
  1.730707e+00    5.650992e+03
  1.753490e+00    5.639810e+03
  1.776273e+00    5.616469e+03
  1.799056e+00    5.579355e+03
  1.821839e+00    5.524460e+03
  1.844621e+00    5.466427e+03
  1.867404e+00    5.412348e+03
  1.890187e+00    5.346710e+03
  1.912970e+00    5.283514e+03
  1.935753e+00    5.225081e+03
  1.958535e+00    5.167450e+03
  1.981318e+00    5.108825e+03
  2.004101e+00    5.050448e+03
  2.026884e+00    4.995622e+03
  2.049667e+00    4.937451e+03
  2.072449e+00    4.872814e+03
  2.095232e+00    4.814565e+03
  2.118015e+00    4.757587e+03
  2.140798e+00    4.699359e+03
  2.163581e+00    4.626546e+03
  2.186363e+00    4.536404e+03
  2.209146e+00    4.443865e+03
  2.231929e+00    4.345387e+03
  2.254712e+00    4.247615e+03
  2.277494e+00    4.153060e+03
  2.300277e+00    4.054473e+03
  2.323060e+00    3.951979e+03
  2.345843e+00    3.851619e+03
  2.368626e+00    3.750010e+03
  2.391408e+00    3.651769e+03
  2.414191e+00    3.553562e+03
  2.436974e+00    3.460889e+03
  2.459757e+00    3.376818e+03
  2.482540e+00    3.289179e+03
  2.505322e+00    3.194478e+03
  2.528105e+00    3.100308e+03
  2.550888e+00    3.014016e+03
  2.573671e+00    2.936580e+03
  2.596454e+00    2.868742e+03
  2.619236e+00    2.812213e+03
  2.642019e+00    2.762235e+03
  2.664802e+00    2.715972e+03
  2.687585e+00    2.679438e+03
  2.710368e+00    2.651430e+03
  2.733150e+00    2.635046e+03
  2.755933e+00    2.624485e+03
  2.778716e+00    2.620816e+03
  2.801499e+00    2.625613e+03
  2.824282e+00    2.630701e+03
  2.847064e+00    2.636390e+03
  2.869847e+00    2.646917e+03
  2.892630e+00    2.656515e+03
  2.915413e+00    2.660873e+03
  2.938196e+00    2.663258e+03
  2.960978e+00    2.662898e+03
  2.983761e+00    2.660398e+03
  3.006544e+00    2.656146e+03
  3.029327e+00    2.650457e+03
  3.052110e+00    2.642860e+03
  3.074892e+00    2.631060e+03
  3.097675e+00    2.617636e+03
  3.120458e+00    2.604773e+03
  3.143241e+00    2.591943e+03
  3.166023e+00    2.578503e+03
  3.188806e+00    2.564432e+03
  3.211589e+00    2.549377e+03
  3.234372e+00    2.534706e+03
  3.257155e+00    2.520976e+03
  3.279937e+00    2.509279e+03
  3.302720e+00    2.497427e+03
  3.325503e+00    2.485695e+03
  3.348286e+00    2.473923e+03
  3.371069e+00    2.462488e+03
  3.393851e+00    2.453148e+03
  3.416634e+00    2.445752e+03
  3.439417e+00    2.440543e+03
  3.462200e+00    2.442146e+03
  3.484983e+00    2.447903e+03
  3.507765e+00    2.450800e+03
  3.530548e+00    2.451458e+03
  3.553331e+00    2.447792e+03
  3.576114e+00    2.443975e+03
  3.598897e+00    2.443077e+03
  3.621679e+00    2.446778e+03
  3.644462e+00    2.455523e+03
  3.667245e+00    2.463708e+03
  3.690028e+00    2.472301e+03
  3.712811e+00    2.481588e+03
  3.735593e+00    2.492296e+03
  3.758376e+00    2.503033e+03
  3.781159e+00    2.513262e+03
  3.803942e+00    2.524156e+03
  3.826725e+00    2.534762e+03
  3.849507e+00    2.544007e+03
  3.872290e+00    2.554092e+03
  3.895073e+00    2.568754e+03
  3.917856e+00    2.579884e+03
  3.940638e+00    2.586936e+03
  3.963421e+00    2.597839e+03
  3.986204e+00    2.609678e+03
  4.008987e+00    2.620542e+03
  4.031770e+00    2.631104e+03
  4.054552e+00    2.644439e+03
  4.077335e+00    2.661055e+03
  4.100118e+00    2.670258e+03
  4.122901e+00    2.679715e+03
  4.145684e+00    2.685866e+03
  4.168466e+00    2.688104e+03
  4.191249e+00    2.688328e+03
  4.214032e+00    2.689238e+03
  4.236815e+00    2.693365e+03
  4.259598e+00    2.692760e+03
  4.282380e+00    2.684758e+03
  4.305163e+00    2.680583e+03
  4.327946e+00    2.675344e+03
  4.350729e+00    2.668827e+03
  4.373512e+00    2.661125e+03
  4.396294e+00    2.653001e+03
  4.419077e+00    2.643354e+03
  4.441860e+00    2.631082e+03
  4.464643e+00    2.620362e+03
  4.487426e+00    2.615920e+03
  4.510208e+00    2.600242e+03
  4.532991e+00    2.580825e+03
  4.555774e+00    2.565504e+03
  4.578557e+00    2.549934e+03
  4.601340e+00    2.533302e+03
  4.624122e+00    2.515823e+03
  4.646905e+00    2.501137e+03
  4.669688e+00    2.488357e+03
  4.692471e+00    2.463945e+03
  4.715253e+00    2.444472e+03
  4.738036e+00    2.427230e+03
  4.760819e+00    2.410516e+03
  4.783602e+00    2.393633e+03
  4.806385e+00    2.377499e+03
  4.829167e+00    2.367116e+03
  4.851950e+00    2.351794e+03
  4.874733e+00    2.333919e+03
  4.897516e+00    2.321986e+03
  4.920299e+00    2.311159e+03
  4.943081e+00    2.301013e+03
  4.965864e+00    2.290374e+03
  4.988647e+00    2.280237e+03
  5.011430e+00    2.271222e+03
  5.034213e+00    2.253058e+03
  5.056995e+00    2.240097e+03
  5.079778e+00    2.233617e+03
  5.102561e+00    2.217219e+03
  5.125344e+00    2.201996e+03
  5.148127e+00    2.189212e+03
  5.170909e+00    2.176554e+03
  5.193692e+00    2.162528e+03
  5.216475e+00    2.148653e+03
  5.239258e+00    2.137841e+03
  5.262041e+00    2.123812e+03
  5.284823e+00    2.102855e+03
  5.307606e+00    2.086021e+03
  5.330389e+00    2.069461e+03
  5.353172e+00    2.051728e+03
  5.375955e+00    2.032644e+03
  5.398737e+00    2.013363e+03
  5.421520e+00    1.996552e+03
  5.444303e+00    1.971786e+03
  5.467086e+00    1.947515e+03
  5.489869e+00    1.925251e+03
  5.512651e+00    1.903698e+03
  5.535434e+00    1.882925e+03
  5.558217e+00    1.862995e+03
  5.581000e+00    1.845666e+03
  5.603782e+00    1.826174e+03
  5.626565e+00    1.803692e+03
  5.649348e+00    1.785924e+03
  5.672131e+00    1.769516e+03
  5.694914e+00    1.749374e+03
  5.717696e+00    1.732804e+03
  5.740479e+00    1.718186e+03
  5.763262e+00    1.704245e+03
  5.786045e+00    1.690872e+03
  5.808828e+00    1.679149e+03
  5.831610e+00    1.670309e+03
  5.854393e+00    1.657693e+03
  5.877176e+00    1.645037e+03
  5.899959e+00    1.635074e+03
  5.922742e+00    1.625962e+03
  5.945524e+00    1.616961e+03
  5.968307e+00    1.608441e+03
  5.991090e+00    1.602759e+03
  6.013873e+00    1.596429e+03
  6.036656e+00    1.586162e+03
  6.059438e+00    1.580278e+03
  6.082221e+00    1.575221e+03
  6.105004e+00    1.565365e+03
  6.127787e+00    1.557479e+03
  6.150570e+00    1.550774e+03
  6.173352e+00    1.545301e+03
  6.196135e+00    1.537378e+03
  6.218918e+00    1.529767e+03
  6.241701e+00    1.524403e+03
  6.264484e+00    1.516645e+03
  6.287266e+00    1.508640e+03
  6.310049e+00    1.501837e+03
  6.332832e+00    1.495306e+03
  6.355615e+00    1.488220e+03
  6.378397e+00    1.480994e+03
  6.401180e+00    1.475173e+03
  6.423963e+00    1.469267e+03
  6.446746e+00    1.460508e+03
  6.469529e+00    1.453098e+03
  6.492311e+00    1.445622e+03
  6.515094e+00    1.438000e+03
  6.537877e+00    1.430459e+03
  6.560660e+00    1.423075e+03
  6.583443e+00    1.416550e+03
  6.606225e+00    1.408258e+03
  6.629008e+00    1.400335e+03
  6.651791e+00    1.393951e+03
  6.674574e+00    1.386160e+03
  6.697357e+00    1.378299e+03
  6.720139e+00    1.371413e+03
  6.742922e+00    1.365283e+03
  6.765705e+00    1.358334e+03
  6.788488e+00    1.350694e+03
  6.811271e+00    1.344310e+03
  6.834053e+00    1.337838e+03
  6.856836e+00    1.330226e+03
  6.879619e+00    1.323362e+03
  6.902402e+00    1.317083e+03
  6.925185e+00    1.310747e+03
  6.947967e+00    1.304440e+03
  6.970750e+00    1.299010e+03
  6.993533e+00    1.294278e+03
  7.016316e+00    1.288693e+03
  7.039099e+00    1.283530e+03
  7.061881e+00    1.278672e+03
  7.084664e+00    1.273922e+03
  7.107447e+00    1.269548e+03
  7.130230e+00    1.265628e+03
  7.153013e+00    1.262096e+03
  7.175795e+00    1.258644e+03
  7.198578e+00    1.255379e+03
  7.221361e+00    1.252515e+03
  7.244144e+00    1.250209e+03
  7.266926e+00    1.248319e+03
  7.289709e+00    1.246709e+03
  7.312492e+00    1.245628e+03
  7.335275e+00    1.244911e+03
  7.358058e+00    1.244496e+03
  7.380840e+00    1.244237e+03
  7.403623e+00    1.244048e+03
  7.426406e+00    1.243732e+03
  7.449189e+00    1.244036e+03
  7.471972e+00    1.245026e+03
  7.494754e+00    1.246124e+03
  7.517537e+00    1.247329e+03
  7.540320e+00    1.248969e+03
  7.563103e+00    1.250628e+03
  7.585886e+00    1.252360e+03
  7.608668e+00    1.253961e+03
  7.631451e+00    1.255745e+03
  7.654234e+00    1.257739e+03
  7.677017e+00    1.259231e+03
  7.699800e+00    1.260755e+03
  7.722582e+00    1.262483e+03
  7.745365e+00    1.263961e+03
  7.768148e+00    1.265395e+03
  7.790931e+00    1.267134e+03
  7.813714e+00    1.268429e+03
  7.836496e+00    1.269716e+03
  7.859279e+00    1.270892e+03
  7.882062e+00    1.271512e+03
  7.904845e+00    1.271632e+03
  7.927628e+00    1.271112e+03
  7.950410e+00    1.270680e+03
  7.973193e+00    1.270035e+03
  7.995976e+00    1.268676e+03
  8.018759e+00    1.267191e+03
  8.041541e+00    1.265470e+03
  8.064324e+00    1.263441e+03
  8.087107e+00    1.260789e+03
  8.109890e+00    1.258326e+03
  8.132673e+00    1.256133e+03
  8.155455e+00    1.252862e+03
  8.178238e+00    1.249517e+03
  8.201021e+00    1.246516e+03
  8.223804e+00    1.243475e+03
  8.246587e+00    1.240241e+03
  8.269369e+00    1.237151e+03
  8.292152e+00    1.233810e+03
  8.314935e+00    1.230024e+03
  8.337718e+00    1.226283e+03
  8.360501e+00    1.222823e+03
  8.383283e+00    1.219428e+03
  8.406066e+00    1.215858e+03
  8.428849e+00    1.212174e+03
  8.451632e+00    1.208495e+03
  8.474415e+00    1.204707e+03
  8.497197e+00    1.200646e+03
  8.519980e+00    1.196630e+03
  8.542763e+00    1.192895e+03
  8.565546e+00    1.189580e+03
  8.588329e+00    1.186144e+03
  8.611111e+00    1.182985e+03
  8.633894e+00    1.179460e+03
  8.656677e+00    1.175985e+03
  8.679460e+00    1.172542e+03
  8.702243e+00    1.168982e+03
  8.725025e+00    1.165780e+03
  8.747808e+00    1.162616e+03
  8.770591e+00    1.159547e+03
  8.793374e+00    1.156376e+03
  8.816156e+00    1.152748e+03
  8.838939e+00    1.149168e+03
  8.861722e+00    1.145439e+03
  8.884505e+00    1.141883e+03
  8.907288e+00    1.138349e+03
  8.930070e+00    1.134590e+03
  8.952853e+00    1.130900e+03
  8.975636e+00    1.127070e+03
  8.998419e+00    1.123105e+03
  9.021202e+00    1.119015e+03
  9.043984e+00    1.115357e+03
  9.066767e+00    1.111532e+03
  9.089550e+00    1.107437e+03
  9.112333e+00    1.103431e+03
  9.135116e+00    1.099200e+03
  9.157898e+00    1.094693e+03
  9.180681e+00    1.089936e+03
  9.203464e+00    1.085287e+03
  9.226247e+00    1.080830e+03
  9.249030e+00    1.076059e+03
  9.271812e+00    1.071553e+03
  9.294595e+00    1.067195e+03
  9.317378e+00    1.062734e+03
  9.340161e+00    1.058386e+03
  9.362944e+00    1.053808e+03
  9.385726e+00    1.048961e+03
  9.408509e+00    1.044268e+03
  9.431292e+00    1.039776e+03
  9.454075e+00    1.035138e+03
  9.476858e+00    1.030740e+03
  9.499640e+00    1.026350e+03
  9.522423e+00    1.021822e+03
  9.545206e+00    1.017116e+03
  9.567989e+00    1.012540e+03
  9.590772e+00    1.007997e+03
  9.613554e+00    1.003872e+03
  9.636337e+00    9.995936e+02
  9.659120e+00    9.953828e+02
  9.681903e+00    9.914103e+02
  9.704685e+00    9.875149e+02
  9.727468e+00    9.836454e+02
  9.750251e+00    9.799797e+02
  9.773034e+00    9.767294e+02
  9.795817e+00    9.731998e+02
  9.818599e+00    9.695204e+02
  9.841382e+00    9.658746e+02
  9.864165e+00    9.625065e+02
  9.886948e+00    9.595422e+02
  9.909731e+00    9.565965e+02
  9.932513e+00    9.537054e+02
  9.955296e+00    9.510659e+02
  9.978079e+00    9.485521e+02
  1.000086e+01    9.461511e+02
  1.002364e+01    9.437654e+02
  1.004643e+01    9.414230e+02
  1.006921e+01    9.390851e+02
  1.009199e+01    9.367276e+02
  1.011478e+01    9.345535e+02
  1.013756e+01    9.322334e+02
  1.016034e+01    9.300167e+02
  1.018312e+01    9.278867e+02
  1.020591e+01    9.257337e+02
  1.022869e+01    9.238046e+02
  1.025147e+01    9.220696e+02
  1.027426e+01    9.202363e+02
  1.029704e+01    9.185546e+02
  1.031982e+01    9.169235e+02
  1.034260e+01    9.153911e+02
  1.036539e+01    9.138667e+02
  1.038817e+01    9.122936e+02
  1.041095e+01    9.106174e+02
  1.043373e+01    9.089581e+02
  1.045652e+01    9.074545e+02
  1.047930e+01    9.057733e+02
  1.050208e+01    9.044172e+02
  1.052487e+01    9.030087e+02
  1.054765e+01    9.016086e+02
  1.057043e+01    9.002359e+02
  1.059321e+01    8.987592e+02
  1.061600e+01    8.972081e+02
  1.063878e+01    8.956524e+02
  1.066156e+01    8.942791e+02
  1.068435e+01    8.928195e+02
  1.070713e+01    8.914005e+02
  1.072991e+01    8.897044e+02
  1.075269e+01    8.881199e+02
  1.077548e+01    8.864852e+02
  1.079826e+01    8.848559e+02
  1.082104e+01    8.832594e+02
  1.084383e+01    8.815301e+02
  1.086661e+01    8.797999e+02
  1.088939e+01    8.783301e+02
  1.091217e+01    8.768655e+02
  1.093496e+01    8.753853e+02
  1.095774e+01    8.738232e+02
  1.098052e+01    8.722420e+02
  1.100330e+01    8.706030e+02
  1.102609e+01    8.689429e+02
  1.104887e+01    8.673627e+02
  1.107165e+01    8.658888e+02
  1.109444e+01    8.643795e+02
  1.111722e+01    8.628407e+02
  1.114000e+01    8.612224e+02
  1.116278e+01    8.594467e+02
  1.118557e+01    8.576935e+02
  1.120835e+01    8.561277e+02
  1.123113e+01    8.545040e+02
  1.125392e+01    8.529518e+02
  1.127670e+01    8.513821e+02
  1.129948e+01    8.499474e+02
  1.132226e+01    8.485204e+02
  1.134505e+01    8.470647e+02
  1.136783e+01    8.456865e+02
  1.139061e+01    8.442977e+02
  1.141340e+01    8.429870e+02
  1.143618e+01    8.418401e+02
  1.145896e+01    8.407147e+02
  1.148174e+01    8.396940e+02
  1.150453e+01    8.387377e+02
  1.152731e+01    8.376484e+02
  1.155009e+01    8.365975e+02
  1.157287e+01    8.356217e+02
  1.159566e+01    8.347130e+02
  1.161844e+01    8.338475e+02
  1.164122e+01    8.328558e+02
  1.166401e+01    8.320981e+02
  1.168679e+01    8.313831e+02
  1.170957e+01    8.307162e+02
  1.173235e+01    8.300420e+02
  1.175514e+01    8.293655e+02
  1.177792e+01    8.287095e+02
  1.180070e+01    8.281523e+02
  1.182349e+01    8.275103e+02
  1.184627e+01    8.269670e+02
  1.186905e+01    8.264792e+02
  1.189183e+01    8.259891e+02
  1.191462e+01    8.256569e+02
  1.193740e+01    8.252814e+02
  1.196018e+01    8.249657e+02
  1.198296e+01    8.246308e+02
  1.200575e+01    8.243600e+02
  1.202853e+01    8.240315e+02
  1.205131e+01    8.236378e+02
  1.207410e+01    8.232513e+02
  1.209688e+01    8.229463e+02
  1.211966e+01    8.225070e+02
  1.214244e+01    8.220507e+02
  1.216523e+01    8.216420e+02
  1.218801e+01    8.211428e+02
  1.221079e+01    8.206885e+02
  1.223358e+01    8.201846e+02
  1.225636e+01    8.195069e+02
  1.227914e+01    8.187662e+02
  1.230192e+01    8.179824e+02
  1.232471e+01    8.172812e+02
  1.234749e+01    8.164810e+02
  1.237027e+01    8.155949e+02
  1.239306e+01    8.147348e+02
  1.241584e+01    8.137055e+02
  1.243862e+01    8.127366e+02
  1.246140e+01    8.117249e+02
  1.248419e+01    8.105654e+02
  1.250697e+01    8.093967e+02
  1.252975e+01    8.081422e+02
  1.255253e+01    8.067126e+02
  1.257532e+01    8.052310e+02
  1.259810e+01    8.036370e+02
  1.262088e+01    8.021342e+02
  1.264367e+01    8.005511e+02
  1.266645e+01    7.990150e+02
  1.268923e+01    7.973250e+02
  1.271201e+01    7.954816e+02
  1.273480e+01    7.936661e+02
  1.275758e+01    7.919374e+02
  1.278036e+01    7.901335e+02
  1.280315e+01    7.883578e+02
  1.282593e+01    7.865190e+02
  1.284871e+01    7.847224e+02
  1.287149e+01    7.828940e+02
  1.289428e+01    7.809709e+02
  1.291706e+01    7.791118e+02
  1.293984e+01    7.771963e+02
  1.296263e+01    7.753858e+02
  1.298541e+01    7.734768e+02
  1.300819e+01    7.715233e+02
  1.303097e+01    7.696218e+02
  1.305376e+01    7.676697e+02
  1.307654e+01    7.656699e+02
  1.309932e+01    7.636761e+02
  1.312210e+01    7.618755e+02
  1.314489e+01    7.599818e+02
  1.316767e+01    7.580749e+02
  1.319045e+01    7.561986e+02
  1.321324e+01    7.543096e+02
  1.323602e+01    7.524537e+02
  1.325880e+01    7.506848e+02
  1.328158e+01    7.488935e+02
  1.330437e+01    7.471138e+02
  1.332715e+01    7.454499e+02
  1.334993e+01    7.436757e+02
  1.337272e+01    7.419901e+02
  1.339550e+01    7.403670e+02
  1.341828e+01    7.387075e+02
  1.344106e+01    7.370502e+02
  1.346385e+01    7.355334e+02
  1.348663e+01    7.340367e+02
  1.350941e+01    7.325026e+02
  1.353219e+01    7.308404e+02
  1.355498e+01    7.292310e+02
  1.357776e+01    7.274607e+02
  1.360054e+01    7.257876e+02
  1.362333e+01    7.242324e+02
  1.364611e+01    7.227752e+02
  1.366889e+01    7.213563e+02
  1.369167e+01    7.198962e+02
  1.371446e+01    7.184662e+02
  1.373724e+01    7.171014e+02
  1.376002e+01    7.157422e+02
  1.378281e+01    7.144000e+02
  1.380559e+01    7.130944e+02
  1.382837e+01    7.118525e+02
  1.385115e+01    7.107193e+02
  1.387394e+01    7.096600e+02
  1.389672e+01    7.084238e+02
  1.391950e+01    7.073020e+02
  1.394229e+01    7.061832e+02
  1.396507e+01    7.049929e+02
  1.398785e+01    7.037629e+02
  1.401063e+01    7.025669e+02
  1.403342e+01    7.014327e+02
  1.405620e+01    7.004263e+02
  1.407898e+01    6.993716e+02
  1.410176e+01    6.983624e+02
  1.412455e+01    6.973828e+02
  1.414733e+01    6.963530e+02
  1.417011e+01    6.953360e+02
  1.419290e+01    6.942842e+02
  1.421568e+01    6.932907e+02
  1.423846e+01    6.923856e+02
  1.426124e+01    6.914464e+02
  1.428403e+01    6.905532e+02
  1.430681e+01    6.895544e+02
  1.432959e+01    6.885173e+02
  1.435238e+01    6.875479e+02
  1.437516e+01    6.865759e+02
  1.439794e+01    6.856376e+02
  1.442072e+01    6.848072e+02
  1.444351e+01    6.839600e+02
  1.446629e+01    6.830679e+02
  1.448907e+01    6.822945e+02
  1.451186e+01    6.814771e+02
  1.453464e+01    6.806585e+02
  1.455742e+01    6.796938e+02
  1.458020e+01    6.789227e+02
  1.460299e+01    6.781680e+02
  1.462577e+01    6.773875e+02
  1.464855e+01    6.765938e+02
  1.467133e+01    6.757525e+02
  1.469412e+01    6.749203e+02
  1.471690e+01    6.741128e+02
  1.473968e+01    6.732301e+02
  1.476247e+01    6.724007e+02
  1.478525e+01    6.715769e+02
  1.480803e+01    6.707946e+02
  1.483081e+01    6.700643e+02
  1.485360e+01    6.692664e+02
  1.487638e+01    6.684326e+02
  1.489916e+01    6.677647e+02
  1.492195e+01    6.669521e+02
  1.494473e+01    6.661136e+02
  1.496751e+01    6.653194e+02
  1.499029e+01    6.644627e+02
  1.501308e+01    6.637358e+02
  1.503586e+01    6.633060e+02
  1.505864e+01    6.624039e+02
  1.508142e+01    6.616446e+02
  1.510421e+01    6.607836e+02
  1.512699e+01    6.597397e+02
  1.514977e+01    6.588656e+02
  1.517256e+01    6.581723e+02
  1.519534e+01    6.573787e+02
  1.521812e+01    6.565661e+02
  1.524090e+01    6.558038e+02
  1.526369e+01    6.549165e+02
  1.528647e+01    6.541465e+02
  1.530925e+01    6.533205e+02
  1.533204e+01    6.524877e+02
  1.535482e+01    6.516420e+02
  1.537760e+01    6.508330e+02
  1.540038e+01    6.500433e+02
  1.542317e+01    6.492114e+02
  1.544595e+01    6.483055e+02
  1.546873e+01    6.473592e+02
  1.549152e+01    6.465441e+02
  1.551430e+01    6.457330e+02
  1.553708e+01    6.448832e+02
  1.555986e+01    6.440327e+02
  1.558265e+01    6.431606e+02
  1.560543e+01    6.422100e+02
  1.562821e+01    6.413959e+02
  1.565099e+01    6.405726e+02
  1.567378e+01    6.397627e+02
  1.569656e+01    6.388881e+02
  1.571934e+01    6.380261e+02
  1.574213e+01    6.372352e+02
  1.576491e+01    6.363890e+02
  1.578769e+01    6.355331e+02
  1.581047e+01    6.347273e+02
  1.583326e+01    6.338740e+02
  1.585604e+01    6.330348e+02
  1.587882e+01    6.321483e+02
  1.590161e+01    6.313148e+02
  1.592439e+01    6.304413e+02
  1.594717e+01    6.296602e+02
  1.596995e+01    6.288668e+02
  1.599274e+01    6.281374e+02
  1.601552e+01    6.274296e+02
  1.603830e+01    6.266587e+02
  1.606109e+01    6.258646e+02
  1.608387e+01    6.251419e+02
  1.610665e+01    6.244137e+02
  1.612943e+01    6.236807e+02
  1.615222e+01    6.229012e+02
  1.617500e+01    6.221577e+02
  1.619778e+01    6.214488e+02
  1.622056e+01    6.207098e+02
  1.624335e+01    6.200057e+02
  1.626613e+01    6.192825e+02
  1.628891e+01    6.185964e+02
  1.631170e+01    6.178350e+02
  1.633448e+01    6.170378e+02
  1.635726e+01    6.162937e+02
  1.638004e+01    6.155909e+02
  1.640283e+01    6.148861e+02
  1.642561e+01    6.141266e+02
  1.644839e+01    6.133978e+02
  1.647118e+01    6.127195e+02
  1.649396e+01    6.119598e+02
  1.651674e+01    6.112115e+02
  1.653952e+01    6.104963e+02
  1.656231e+01    6.097615e+02
  1.658509e+01    6.089379e+02
  1.660787e+01    6.081457e+02
  1.663065e+01    6.073639e+02
  1.665344e+01    6.066385e+02
  1.667622e+01    6.059160e+02
  1.669900e+01    6.050333e+02
  1.672179e+01    6.043044e+02
  1.674457e+01    6.034936e+02
  1.676735e+01    6.027037e+02
  1.679013e+01    6.017762e+02
  1.681292e+01    6.008815e+02
  1.683570e+01    5.999911e+02
  1.685848e+01    5.990241e+02
  1.688127e+01    5.981376e+02
  1.690405e+01    5.972168e+02
  1.692683e+01    5.964115e+02
  1.694961e+01    5.954453e+02
  1.697240e+01    5.945346e+02
  1.699518e+01    5.935848e+02
  1.701796e+01    5.926040e+02
  1.704075e+01    5.916069e+02
  1.706353e+01    5.905966e+02
  1.708631e+01    5.895364e+02
  1.710909e+01    5.884126e+02
  1.713188e+01    5.873422e+02
  1.715466e+01    5.863798e+02
  1.717744e+01    5.853782e+02
  1.720022e+01    5.842620e+02
  1.722301e+01    5.832545e+02
  1.724579e+01    5.822794e+02
  1.726857e+01    5.812443e+02
  1.729136e+01    5.802474e+02
  1.731414e+01    5.792451e+02
  1.733692e+01    5.781522e+02
  1.735970e+01    5.770198e+02
  1.738249e+01    5.759603e+02
  1.740527e+01    5.749178e+02
  1.742805e+01    5.737899e+02
  1.745084e+01    5.727204e+02
  1.747362e+01    5.717103e+02
  1.749640e+01    5.706623e+02
  1.751918e+01    5.695877e+02
  1.754197e+01    5.684723e+02
  1.756475e+01    5.673333e+02
  1.758753e+01    5.663527e+02
  1.761032e+01    5.653916e+02
  1.763310e+01    5.644169e+02
  1.765588e+01    5.634141e+02
  1.767866e+01    5.625060e+02
  1.770145e+01    5.615110e+02
  1.772423e+01    5.604800e+02
  1.774701e+01    5.595175e+02
  1.776979e+01    5.585952e+02
  1.779258e+01    5.576375e+02
  1.781536e+01    5.567156e+02
  1.783814e+01    5.557575e+02
  1.786093e+01    5.548495e+02
  1.788371e+01    5.539308e+02
  1.790649e+01    5.530241e+02
  1.792927e+01    5.521234e+02
  1.795206e+01    5.511857e+02
  1.797484e+01    5.502975e+02
  1.799762e+01    5.494588e+02
  1.802041e+01    5.486616e+02
  1.804319e+01    5.478067e+02
  1.806597e+01    5.469104e+02
  1.808875e+01    5.460721e+02
  1.811154e+01    5.452266e+02
  1.813432e+01    5.443942e+02
  1.815710e+01    5.436160e+02
  1.817989e+01    5.428436e+02
  1.820267e+01    5.419792e+02
  1.822545e+01    5.411692e+02
  1.824823e+01    5.403860e+02
  1.827102e+01    5.395925e+02
  1.829380e+01    5.387677e+02
  1.831658e+01    5.380043e+02
  1.833936e+01    5.372522e+02
  1.836215e+01    5.364379e+02
  1.838493e+01    5.356578e+02
  1.840771e+01    5.349680e+02
  1.843050e+01    5.342689e+02
  1.845328e+01    5.336014e+02
  1.847606e+01    5.328646e+02
  1.849884e+01    5.321077e+02
  1.852163e+01    5.313315e+02
  1.854441e+01    5.305767e+02
  1.856719e+01    5.298100e+02
  1.858998e+01    5.291788e+02
  1.861276e+01    5.284695e+02
  1.863554e+01    5.277700e+02
  1.865832e+01    5.270540e+02
  1.868111e+01    5.263595e+02
  1.870389e+01    5.257002e+02
  1.872667e+01    5.250130e+02
  1.874945e+01    5.243387e+02
  1.877224e+01    5.237137e+02
  1.879502e+01    5.230226e+02
  1.881780e+01    5.223478e+02
  1.884059e+01    5.217051e+02
  1.886337e+01    5.210349e+02
  1.888615e+01    5.203766e+02
  1.890893e+01    5.197436e+02
  1.893172e+01    5.191175e+02
  1.895450e+01    5.184615e+02
  1.897728e+01    5.177548e+02
  1.900007e+01    5.170276e+02
  1.902285e+01    5.163613e+02
  1.904563e+01    5.157276e+02
  1.906841e+01    5.150285e+02
  1.909120e+01    5.143394e+02
  1.911398e+01    5.136633e+02
  1.913676e+01    5.130664e+02
  1.915955e+01    5.123877e+02
  1.918233e+01    5.116929e+02
  1.920511e+01    5.110429e+02
  1.922789e+01    5.103692e+02
  1.925068e+01    5.096585e+02
  1.927346e+01    5.089755e+02
  1.929624e+01    5.083011e+02
  1.931902e+01    5.075668e+02
  1.934181e+01    5.069729e+02
  1.936459e+01    5.062506e+02
  1.938737e+01    5.055282e+02
  1.941016e+01    5.048902e+02
  1.943294e+01    5.042159e+02
  1.945572e+01    5.035421e+02
  1.947850e+01    5.028729e+02
  1.950129e+01    5.021507e+02
  1.952407e+01    5.014910e+02
  1.954685e+01    5.008371e+02
  1.956964e+01    5.001418e+02
  1.959242e+01    4.994591e+02
  1.961520e+01    4.987737e+02
  1.963798e+01    4.981424e+02
  1.966077e+01    4.975392e+02
  1.968355e+01    4.968040e+02
  1.970633e+01    4.960637e+02
  1.972912e+01    4.953306e+02
  1.975190e+01    4.946218e+02
  1.977468e+01    4.939518e+02
  1.979746e+01    4.931584e+02
  1.982025e+01    4.923954e+02
  1.984303e+01    4.917194e+02
  1.986581e+01    4.910484e+02
  1.988859e+01    4.902946e+02
  1.991138e+01    4.895706e+02
  1.993416e+01    4.888133e+02
  1.995694e+01    4.880898e+02
  1.997973e+01    4.873564e+02
  2.000251e+01    4.866191e+02
  2.002529e+01    4.858358e+02
  2.004807e+01    4.851120e+02
  2.007086e+01    4.843804e+02
  2.009364e+01    4.836315e+02
  2.011642e+01    4.828070e+02
  2.013921e+01    4.820524e+02
  2.016199e+01    4.812912e+02
  2.018477e+01    4.804908e+02
  2.020755e+01    4.797123e+02
  2.023034e+01    4.789490e+02
  2.025312e+01    4.781152e+02
  2.027590e+01    4.773324e+02
  2.029868e+01    4.765747e+02
  2.032147e+01    4.757807e+02
  2.034425e+01    4.749323e+02
  2.036703e+01    4.741606e+02
  2.038982e+01    4.734228e+02
  2.041260e+01    4.725602e+02
  2.043538e+01    4.718448e+02
  2.045816e+01    4.710907e+02
  2.048095e+01    4.703201e+02
  2.050373e+01    4.695314e+02
  2.052651e+01    4.687893e+02
  2.054930e+01    4.680176e+02
  2.057208e+01    4.672722e+02
  2.059486e+01    4.665700e+02
  2.061764e+01    4.658185e+02
  2.064043e+01    4.651131e+02
  2.066321e+01    4.643788e+02
  2.068599e+01    4.636452e+02
  2.070878e+01    4.629442e+02
  2.073156e+01    4.622381e+02
  2.075434e+01    4.614445e+02
  2.077712e+01    4.606812e+02
  2.079991e+01    4.599273e+02
  2.082269e+01    4.591444e+02
  2.084547e+01    4.583441e+02
  2.086825e+01    4.575602e+02
  2.089104e+01    4.568906e+02
  2.091382e+01    4.561367e+02
  2.093660e+01    4.553988e+02
  2.095939e+01    4.546993e+02
  2.098217e+01    4.538758e+02
  2.100495e+01    4.531446e+02
  2.102773e+01    4.523985e+02
  2.105052e+01    4.516536e+02
  2.107330e+01    4.508613e+02
  2.109608e+01    4.500591e+02
  2.111887e+01    4.493151e+02
  2.114165e+01    4.485929e+02
  2.116443e+01    4.478471e+02
  2.118721e+01    4.470773e+02
  2.121000e+01    4.463683e+02
  2.123278e+01    4.455728e+02
  2.125556e+01    4.448073e+02
  2.127835e+01    4.440681e+02
  2.130113e+01    4.433196e+02
  2.132391e+01    4.426131e+02
  2.134669e+01    4.418499e+02
  2.136948e+01    4.410857e+02
  2.139226e+01    4.403285e+02
  2.141504e+01    4.397380e+02
  2.143782e+01    4.392723e+02
  2.146061e+01    4.383561e+02
  2.148339e+01    4.375683e+02
  2.150617e+01    4.367537e+02
  2.152896e+01    4.360262e+02
  2.155174e+01    4.352451e+02
  2.157452e+01    4.344565e+02
  2.159730e+01    4.337309e+02
  2.162009e+01    4.330087e+02
  2.164287e+01    4.322328e+02
  2.166565e+01    4.314506e+02
  2.168844e+01    4.306446e+02
  2.171122e+01    4.299043e+02
  2.173400e+01    4.291758e+02
  2.175678e+01    4.284474e+02
  2.177957e+01    4.277422e+02
  2.180235e+01    4.269669e+02
  2.182513e+01    4.262495e+02
  2.184791e+01    4.255516e+02
  2.187070e+01    4.247971e+02
  2.189348e+01    4.241087e+02
  2.191626e+01    4.233731e+02
  2.193905e+01    4.226254e+02
  2.196183e+01    4.218870e+02
  2.198461e+01    4.211369e+02
  2.200739e+01    4.204585e+02
  2.203018e+01    4.197164e+02
  2.205296e+01    4.189973e+02
  2.207574e+01    4.183026e+02
  2.209853e+01    4.176151e+02
  2.212131e+01    4.168987e+02
  2.214409e+01    4.161504e+02
  2.216687e+01    4.154080e+02
  2.218966e+01    4.146783e+02
  2.221244e+01    4.139844e+02
  2.223522e+01    4.133737e+02
  2.225801e+01    4.126707e+02
  2.228079e+01    4.119817e+02
  2.230357e+01    4.112416e+02
  2.232635e+01    4.104911e+02
  2.234914e+01    4.098470e+02
  2.237192e+01    4.091292e+02
  2.239470e+01    4.083692e+02
  2.241748e+01    4.076896e+02
  2.244027e+01    4.070269e+02
  2.246305e+01    4.063169e+02
  2.248583e+01    4.056537e+02
  2.250862e+01    4.050219e+02
  2.253140e+01    4.042777e+02
  2.255418e+01    4.035728e+02
  2.257696e+01    4.029425e+02
  2.259975e+01    4.022779e+02
  2.262253e+01    4.016070e+02
  2.264531e+01    4.009776e+02
  2.266810e+01    4.002828e+02
  2.269088e+01    3.996096e+02
  2.271366e+01    3.989630e+02
  2.273644e+01    3.983263e+02
  2.275923e+01    3.976393e+02
  2.278201e+01    3.970031e+02
  2.280479e+01    3.963113e+02
  2.282758e+01    3.956601e+02
  2.285036e+01    3.950268e+02
  2.287314e+01    3.943608e+02
  2.289592e+01    3.936923e+02
  2.291871e+01    3.930233e+02
  2.294149e+01    3.923370e+02
  2.296427e+01    3.917001e+02
  2.298705e+01    3.910534e+02
  2.300984e+01    3.903774e+02
  2.303262e+01    3.897015e+02
  2.305540e+01    3.890564e+02
  2.307819e+01    3.883954e+02
  2.310097e+01    3.877235e+02
  2.312375e+01    3.870819e+02
  2.314653e+01    3.864189e+02
  2.316932e+01    3.857746e+02
  2.319210e+01    3.850900e+02
  2.321488e+01    3.844541e+02
  2.323767e+01    3.837853e+02
  2.326045e+01    3.831534e+02
  2.328323e+01    3.824524e+02
  2.330601e+01    3.818552e+02
  2.332880e+01    3.811807e+02
  2.335158e+01    3.805551e+02
  2.337436e+01    3.798946e+02
  2.339714e+01    3.792442e+02
  2.341993e+01    3.786341e+02
  2.344271e+01    3.779970e+02
  2.346549e+01    3.773100e+02
  2.348828e+01    3.766109e+02
  2.351106e+01    3.759620e+02
  2.353384e+01    3.753250e+02
  2.355662e+01    3.746763e+02
  2.357941e+01    3.740133e+02
  2.360219e+01    3.733458e+02
  2.362497e+01    3.726917e+02
  2.364776e+01    3.720633e+02
  2.367054e+01    3.714819e+02
  2.369332e+01    3.710786e+02
  2.371610e+01    3.705085e+02
  2.373889e+01    3.696736e+02
  2.376167e+01    3.688666e+02
  2.378445e+01    3.682162e+02
  2.380724e+01    3.675627e+02
  2.383002e+01    3.668716e+02
  2.385280e+01    3.662297e+02
  2.387558e+01    3.655674e+02
  2.389837e+01    3.648661e+02
  2.392115e+01    3.641674e+02
  2.394393e+01    3.634784e+02
  2.396671e+01    3.627832e+02
  2.398950e+01    3.621144e+02
  2.401228e+01    3.614484e+02
  2.403506e+01    3.608362e+02
  2.405785e+01    3.601501e+02
  2.408063e+01    3.594902e+02
  2.410341e+01    3.588545e+02
  2.412619e+01    3.581387e+02
  2.414898e+01    3.575045e+02
  2.417176e+01    3.568258e+02
  2.419454e+01    3.561674e+02
  2.421733e+01    3.555137e+02
  2.424011e+01    3.548289e+02
  2.426289e+01    3.541752e+02
  2.428567e+01    3.535455e+02
  2.430846e+01    3.528779e+02
  2.433124e+01    3.521829e+02
  2.435402e+01    3.515149e+02
  2.437681e+01    3.508342e+02
  2.439959e+01    3.501331e+02
  2.442237e+01    3.494727e+02
  2.444515e+01    3.488060e+02
  2.446794e+01    3.481309e+02
  2.449072e+01    3.474338e+02
  2.451350e+01    3.467483e+02
  2.453628e+01    3.460991e+02
  2.455907e+01    3.454791e+02
  2.458185e+01    3.448221e+02
  2.460463e+01    3.441367e+02
  2.462742e+01    3.434306e+02
  2.465020e+01    3.427497e+02
  2.467298e+01    3.420805e+02
  2.469576e+01    3.414338e+02
  2.471855e+01    3.407374e+02
  2.474133e+01    3.400620e+02
  2.476411e+01    3.394212e+02
  2.478690e+01    3.387567e+02
  2.480968e+01    3.381006e+02
  2.483246e+01    3.374583e+02
  2.485524e+01    3.367512e+02
  2.487803e+01    3.360614e+02
  2.490081e+01    3.353848e+02
  2.492359e+01    3.347140e+02
  2.494637e+01    3.340356e+02
  2.496916e+01    3.333518e+02
  2.499194e+01    3.326769e+02
  2.501472e+01    3.320213e+02
  2.503751e+01    3.313329e+02
  2.506029e+01    3.306604e+02
  2.508307e+01    3.300256e+02
  2.510585e+01    3.293729e+02
  2.512864e+01    3.286762e+02
  2.515142e+01    3.279853e+02
  2.517420e+01    3.273225e+02
  2.519699e+01    3.266338e+02
  2.521977e+01    3.259900e+02
  2.524255e+01    3.253186e+02
  2.526533e+01    3.246489e+02
  2.528812e+01    3.240043e+02
  2.531090e+01    3.233199e+02
  2.533368e+01    3.226901e+02
  2.535647e+01    3.220537e+02
  2.537925e+01    3.214385e+02
  2.540203e+01    3.208243e+02
  2.542481e+01    3.201746e+02
  2.544760e+01    3.195507e+02
  2.547038e+01    3.189183e+02
  2.549316e+01    3.183415e+02
  2.551594e+01    3.176609e+02
  2.553873e+01    3.169871e+02
  2.556151e+01    3.163504e+02
  2.558429e+01    3.157049e+02
  2.560708e+01    3.150816e+02
  2.562986e+01    3.144241e+02
  2.565264e+01    3.138067e+02
  2.567542e+01    3.131717e+02
  2.569821e+01    3.125363e+02
  2.572099e+01    3.119447e+02
  2.574377e+01    3.113106e+02
  2.576656e+01    3.106957e+02
  2.578934e+01    3.100649e+02
  2.581212e+01    3.094179e+02
  2.583490e+01    3.088144e+02
  2.585769e+01    3.081690e+02
  2.588047e+01    3.075228e+02
  2.590325e+01    3.069073e+02
  2.592604e+01    3.062684e+02
  2.594882e+01    3.056190e+02
  2.597160e+01    3.050312e+02
  2.599438e+01    3.044155e+02
  2.601717e+01    3.038071e+02
  2.603995e+01    3.031697e+02
  2.606273e+01    3.025538e+02
  2.608551e+01    3.019469e+02
  2.610830e+01    3.013083e+02
  2.613108e+01    3.006689e+02
  2.615386e+01    3.000689e+02
  2.617665e+01    2.994490e+02
  2.619943e+01    2.988408e+02
  2.622221e+01    2.982267e+02
  2.624499e+01    2.976002e+02
  2.626778e+01    2.970049e+02
  2.629056e+01    2.964146e+02
  2.631334e+01    2.958113e+02
  2.633613e+01    2.951701e+02
  2.635891e+01    2.945681e+02
  2.638169e+01    2.939277e+02
  2.640447e+01    2.933228e+02
  2.642726e+01    2.927215e+02
  2.645004e+01    2.921239e+02
  2.647282e+01    2.914680e+02
  2.649560e+01    2.908562e+02
  2.651839e+01    2.902451e+02
  2.654117e+01    2.896688e+02
  2.656395e+01    2.890383e+02
  2.658674e+01    2.884221e+02
  2.660952e+01    2.877811e+02
  2.663230e+01    2.871972e+02
  2.665508e+01    2.865542e+02
  2.667787e+01    2.859466e+02
  2.670065e+01    2.853372e+02
  2.672343e+01    2.847258e+02
  2.674622e+01    2.841688e+02
  2.676900e+01    2.835746e+02
  2.679178e+01    2.829504e+02
  2.681456e+01    2.823398e+02
  2.683735e+01    2.817343e+02
  2.686013e+01    2.811263e+02
  2.688291e+01    2.804662e+02
  2.690570e+01    2.798735e+02
  2.692848e+01    2.792707e+02
  2.695126e+01    2.786676e+02
  2.697404e+01    2.780738e+02
  2.699683e+01    2.774946e+02
  2.701961e+01    2.768977e+02
  2.704239e+01    2.762461e+02
  2.706517e+01    2.756383e+02
  2.708796e+01    2.750214e+02
  2.711074e+01    2.743776e+02
  2.713352e+01    2.737720e+02
  2.715631e+01    2.731538e+02
  2.717909e+01    2.725290e+02
  2.720187e+01    2.721914e+02
  2.722465e+01    2.725327e+02
  2.724744e+01    2.724253e+02
  2.727022e+01    2.721984e+02
  2.729300e+01    2.718888e+02
  2.731579e+01    2.715342e+02
  2.733857e+01    2.711465e+02
  2.736135e+01    2.708018e+02
  2.738413e+01    2.703862e+02
  2.740692e+01    2.698775e+02
  2.742970e+01    2.689544e+02
  2.745248e+01    2.681176e+02
  2.747527e+01    2.673500e+02
  2.749805e+01    2.666802e+02
  2.752083e+01    2.659604e+02
  2.754361e+01    2.653079e+02
  2.756640e+01    2.646310e+02
  2.758918e+01    2.638666e+02
  2.761196e+01    2.624432e+02
  2.763474e+01    2.612376e+02
  2.765753e+01    2.601584e+02
  2.768031e+01    2.591417e+02
  2.770309e+01    2.581728e+02
  2.772588e+01    2.571742e+02
  2.774866e+01    2.562332e+02
  2.777144e+01    2.553373e+02
  2.779422e+01    2.549834e+02
  2.781701e+01    2.551408e+02
  2.783979e+01    2.548695e+02
  2.786257e+01    2.545067e+02
  2.788536e+01    2.541232e+02
  2.790814e+01    2.535747e+02
  2.793092e+01    2.531173e+02
  2.795370e+01    2.526597e+02
  2.797649e+01    2.520977e+02
  2.799927e+01    2.515674e+02
  2.802205e+01    2.510972e+02
  2.804483e+01    2.505539e+02
  2.806762e+01    2.500683e+02
  2.809040e+01    2.494993e+02
  2.811318e+01    2.489284e+02
  2.813597e+01    2.484041e+02
  2.815875e+01    2.478328e+02
  2.818153e+01    2.472760e+02
  2.820431e+01    2.467352e+02
  2.822710e+01    2.461982e+02
  2.824988e+01    2.456754e+02
  2.827266e+01    2.451092e+02
  2.829545e+01    2.445857e+02
  2.831823e+01    2.440456e+02
  2.834101e+01    2.434893e+02
  2.836379e+01    2.429263e+02
  2.838658e+01    2.423407e+02
  2.840936e+01    2.417552e+02
  2.843214e+01    2.412278e+02
  2.845493e+01    2.406555e+02
  2.847771e+01    2.400967e+02
  2.850049e+01    2.395051e+02
  2.852327e+01    2.389435e+02
  2.854606e+01    2.384138e+02
  2.856884e+01    2.378683e+02
  2.859162e+01    2.372793e+02
  2.861440e+01    2.367168e+02
  2.863719e+01    2.362226e+02
  2.865997e+01    2.356367e+02
  2.868275e+01    2.350746e+02
  2.870554e+01    2.344842e+02
  2.872832e+01    2.339512e+02
  2.875110e+01    2.333468e+02
  2.877388e+01    2.328059e+02
  2.879667e+01    2.323052e+02
  2.881945e+01    2.317365e+02
  2.884223e+01    2.311469e+02
  2.886502e+01    2.305127e+02
  2.888780e+01    2.299757e+02
  2.891058e+01    2.293875e+02
  2.893336e+01    2.288861e+02
  2.895615e+01    2.283800e+02
  2.897893e+01    2.278356e+02
  2.900171e+01    2.272792e+02
  2.902450e+01    2.266966e+02
  2.904728e+01    2.261313e+02
  2.907006e+01    2.255976e+02
  2.909284e+01    2.250084e+02
  2.911563e+01    2.244668e+02
  2.913841e+01    2.239355e+02
  2.916119e+01    2.233360e+02
  2.918397e+01    2.227920e+02
  2.920676e+01    2.222126e+02
  2.922954e+01    2.216406e+02
  2.925232e+01    2.210710e+02
  2.927511e+01    2.205335e+02
  2.929789e+01    2.200201e+02
  2.932067e+01    2.194012e+02
  2.934345e+01    2.188591e+02
  2.936624e+01    2.183422e+02
  2.938902e+01    2.177865e+02
  2.941180e+01    2.172500e+02
  2.943459e+01    2.166912e+02
  2.945737e+01    2.162135e+02
  2.948015e+01    2.155627e+02
  2.950293e+01    2.151286e+02
  2.952572e+01    2.145331e+02
  2.954850e+01    2.139776e+02
  2.957128e+01    2.135027e+02
  2.959407e+01    2.129252e+02
  2.961685e+01    2.124479e+02
  2.963963e+01    2.118523e+02
  2.966241e+01    2.113431e+02
  2.968520e+01    2.107931e+02
  2.970798e+01    2.103059e+02
  2.973076e+01    2.097128e+02
  2.975354e+01    2.091554e+02
  2.977633e+01    2.086096e+02
  2.979911e+01    2.080772e+02
  2.982189e+01    2.075516e+02
  2.984468e+01    2.070715e+02
  2.986746e+01    2.064624e+02
  2.989024e+01    2.059312e+02
  2.991302e+01    2.054341e+02
  2.993581e+01    2.048940e+02
  2.995859e+01    2.043827e+02
  2.998137e+01    2.039082e+02
  3.000416e+01    2.033091e+02
  3.002694e+01    2.028143e+02
  3.004972e+01    2.022867e+02
  3.007250e+01    2.017841e+02
  3.009529e+01    2.012467e+02
  3.011807e+01    2.007395e+02
  3.014085e+01    2.001995e+02
  3.016363e+01    1.996588e+02
  3.018642e+01    1.991563e+02
  3.020920e+01    1.987222e+02
  3.023198e+01    1.981538e+02
  3.025477e+01    1.976003e+02
  3.027755e+01    1.970880e+02
  3.030033e+01    1.966072e+02
  3.032311e+01    1.960900e+02
  3.034590e+01    1.956082e+02
  3.036868e+01    1.951321e+02
  3.039146e+01    1.946256e+02
  3.041425e+01    1.940520e+02
  3.043703e+01    1.935438e+02
  3.045981e+01    1.930650e+02
  3.048259e+01    1.925275e+02
  3.050538e+01    1.920388e+02
  3.052816e+01    1.915963e+02
  3.055094e+01    1.910667e+02
  3.057373e+01    1.905303e+02
  3.059651e+01    1.901136e+02
  3.061929e+01    1.895754e+02
  3.064207e+01    1.890788e+02
  3.066486e+01    1.885556e+02
  3.068764e+01    1.880725e+02
  3.071042e+01    1.874454e+02
  3.073320e+01    1.869907e+02
  3.075599e+01    1.864173e+02
  3.077877e+01    1.859587e+02
  3.080155e+01    1.854978e+02
  3.082434e+01    1.850214e+02
  3.084712e+01    1.844910e+02
  3.086990e+01    1.840339e+02
  3.089268e+01    1.834466e+02
  3.091547e+01    1.829790e+02
  3.093825e+01    1.824930e+02
  3.096103e+01    1.820136e+02
  3.098382e+01    1.815780e+02
  3.100660e+01    1.810194e+02
  3.102938e+01    1.806447e+02
  3.105216e+01    1.800818e+02
  3.107495e+01    1.795788e+02
  3.109773e+01    1.790993e+02
  3.112051e+01    1.785358e+02
  3.114330e+01    1.780855e+02
  3.116608e+01    1.774832e+02
  3.118886e+01    1.770975e+02
  3.121164e+01    1.766312e+02
  3.123443e+01    1.762191e+02
  3.125721e+01    1.757585e+02
  3.127999e+01    1.751618e+02
  3.130277e+01    1.746935e+02
  3.132556e+01    1.742964e+02
  3.134834e+01    1.738158e+02
  3.137112e+01    1.733841e+02
  3.139391e+01    1.728895e+02
  3.141669e+01    1.723808e+02
  3.143947e+01    1.719009e+02
  3.146225e+01    1.714724e+02
  3.148504e+01    1.711431e+02
  3.150782e+01    1.704366e+02
  3.153060e+01    1.701536e+02
  3.155339e+01    1.697300e+02
  3.157617e+01    1.691905e+02
  3.159895e+01    1.687209e+02
  3.162173e+01    1.682495e+02
  3.164452e+01    1.677511e+02
  3.166730e+01    1.672279e+02
  3.169008e+01    1.668257e+02
  3.171286e+01    1.663396e+02
  3.173565e+01    1.659043e+02
  3.175843e+01    1.653712e+02
  3.178121e+01    1.647901e+02
  3.180400e+01    1.644537e+02
  3.182678e+01    1.639578e+02
  3.184956e+01    1.633816e+02
  3.187234e+01    1.630823e+02
  3.189513e+01    1.626109e+02
  3.191791e+01    1.621139e+02
  3.194069e+01    1.616979e+02
  3.196348e+01    1.611863e+02
  3.198626e+01    1.607008e+02
  3.200904e+01    1.602286e+02
  3.203182e+01    1.597840e+02
  3.205461e+01    1.593274e+02
  3.207739e+01    1.588237e+02
  3.210017e+01    1.583351e+02
  3.212296e+01    1.578928e+02
  3.214574e+01    1.574523e+02
  3.216852e+01    1.568892e+02
  3.219130e+01    1.565658e+02
  3.221409e+01    1.559185e+02
  3.223687e+01    1.555511e+02
  3.225965e+01    1.549191e+02
  3.228243e+01    1.545123e+02
  3.230522e+01    1.539627e+02
  3.232800e+01    1.535329e+02
  3.235078e+01    1.528772e+02
  3.237357e+01    1.525004e+02
  3.239635e+01    1.520246e+02
  3.241913e+01    1.514645e+02
  3.244191e+01    1.510168e+02
  3.246470e+01    1.504897e+02
  3.248748e+01    1.500401e+02
  3.251026e+01    1.495624e+02
  3.253305e+01    1.489394e+02
  3.255583e+01    1.484919e+02
  3.257861e+01    1.479960e+02
  3.260139e+01    1.474357e+02
  3.262418e+01    1.469568e+02
  3.264696e+01    1.464169e+02
  3.266974e+01    1.459294e+02
  3.269253e+01    1.453937e+02
  3.271531e+01    1.449480e+02
  3.273809e+01    1.443074e+02
  3.276087e+01    1.438394e+02
  3.278366e+01    1.433572e+02
  3.280644e+01    1.427443e+02
  3.282922e+01    1.422956e+02
  3.285200e+01    1.417592e+02
  3.287479e+01    1.412509e+02
  3.289757e+01    1.406053e+02
  3.292035e+01    1.401457e+02
  3.294314e+01    1.397076e+02
  3.296592e+01    1.391311e+02
  3.298870e+01    1.386032e+02
  3.301148e+01    1.380003e+02
  3.303427e+01    1.374043e+02
  3.305705e+01    1.370795e+02
  3.307983e+01    1.364823e+02
  3.310262e+01    1.359910e+02
  3.312540e+01    1.352912e+02
  3.314818e+01    1.349062e+02
  3.317096e+01    1.344815e+02
  3.319375e+01    1.338881e+02
  3.321653e+01    1.334037e+02
  3.323931e+01    1.330989e+02
  3.326209e+01    1.323956e+02
  3.328488e+01    1.315126e+02
  3.330766e+01    1.313904e+02
  3.333044e+01    1.306061e+02
  3.335323e+01    1.301275e+02
  3.337601e+01    1.294384e+02
  3.339879e+01    1.289703e+02
  3.342157e+01    1.289767e+02
  3.344436e+01    1.273142e+02
  3.346714e+01    1.278765e+02
  3.348992e+01    1.278728e+02
  3.351271e+01    1.272810e+02
  3.353549e+01    0.000000e+00
  3.355827e+01    0.000000e+00
  3.358105e+01    0.000000e+00
  3.360384e+01    0.000000e+00
  3.362662e+01    0.000000e+00
  3.364940e+01    0.000000e+00
  3.367219e+01    0.000000e+00
  3.369497e+01    0.000000e+00
  3.371775e+01    0.000000e+00
