# == pyFAI calibration ==
# Distance Sample to Detector: 0.21311058206280517 m
# PONI: 2.037e-01, 1.993e-01 m
# Rotations: -0.005459 0.000134 0.000000 rad
# 
# == Fit2d calibration ==
# Distance Sample-beamCenter: 213.114 mm
# Center: x=1002.134, y=1018.730 pix
# Tilt: 0.313 deg  TiltPlanRot: 1.411 deg
# 
# Detector Perkin detector	 PixelSize= 2.000e-04, 2.000e-04 m
#    Detector has a mask: False 
#    Detector has a dark current: False 
#    detector has a flat field: False 
# 
# Wavelength: 1.675e-11 m
# Mask applied: provided
# Dark current applied: False
# Flat field applied: False
# Polarization factor: None
# Normalization factor: 1.0
# --> data/chi_bkgsub_false/C_Tatania6-18.5-average.chi
#        q_A^-1             I 
  2.199784e-02    1.255093e+02
  4.478064e-02    1.262131e+02
  6.756343e-02    1.262274e+02
  9.034623e-02    1.281819e+02
  1.131290e-01    1.292909e+02
  1.359118e-01    1.317910e+02
  1.586946e-01    1.345995e+02
  1.814774e-01    1.395201e+02
  2.042602e-01    1.452036e+02
  2.270430e-01    1.561397e+02
  2.498258e-01    1.767000e+02
  2.726086e-01    2.130803e+02
  2.953914e-01    4.004480e+02
  3.181742e-01    6.402232e+02
  3.409570e-01    1.043415e+03
  3.637398e-01    1.475976e+03
  3.865226e-01    1.195696e+03
  4.093054e-01    8.844047e+02
  4.320881e-01    7.126878e+02
  4.548709e-01    6.354040e+02
  4.776537e-01    6.829847e+02
  5.004365e-01    7.298357e+02
  5.232193e-01    7.661731e+02
  5.460021e-01    8.137789e+02
  5.687849e-01    8.809886e+02
  5.915677e-01    9.615248e+02
  6.143505e-01    1.048673e+03
  6.371333e-01    1.162721e+03
  6.599161e-01    1.278830e+03
  6.826989e-01    1.397150e+03
  7.054817e-01    1.503700e+03
  7.282645e-01    1.588190e+03
  7.510473e-01    1.653854e+03
  7.738301e-01    1.700641e+03
  7.966129e-01    1.743252e+03
  8.193956e-01    1.787437e+03
  8.421784e-01    1.830829e+03
  8.649612e-01    1.877569e+03
  8.877440e-01    1.929538e+03
  9.105268e-01    1.981452e+03
  9.333096e-01    2.038333e+03
  9.560924e-01    2.099645e+03
  9.788752e-01    2.163156e+03
  1.001658e+00    2.232942e+03
  1.024441e+00    2.306726e+03
  1.047224e+00    2.384583e+03
  1.070006e+00    2.469895e+03
  1.092789e+00    2.559820e+03
  1.115572e+00    2.654296e+03
  1.138355e+00    2.758048e+03
  1.161138e+00    2.865476e+03
  1.183920e+00    2.979859e+03
  1.206703e+00    3.103708e+03
  1.229486e+00    3.229097e+03
  1.252269e+00    3.363985e+03
  1.275052e+00    3.507995e+03
  1.297834e+00    3.645858e+03
  1.320617e+00    3.794489e+03
  1.343400e+00    3.948798e+03
  1.366183e+00    4.100893e+03
  1.388966e+00    4.259044e+03
  1.411748e+00    4.416154e+03
  1.434531e+00    4.570719e+03
  1.457314e+00    4.723312e+03
  1.480097e+00    4.861036e+03
  1.502879e+00    4.994281e+03
  1.525662e+00    5.121377e+03
  1.548445e+00    5.233117e+03
  1.571228e+00    5.331947e+03
  1.594011e+00    5.417631e+03
  1.616793e+00    5.492421e+03
  1.639576e+00    5.546880e+03
  1.662359e+00    5.587235e+03
  1.685142e+00    5.626302e+03
  1.707925e+00    5.655600e+03
  1.730707e+00    5.680939e+03
  1.753490e+00    5.699661e+03
  1.776273e+00    5.694477e+03
  1.799056e+00    5.653513e+03
  1.821839e+00    5.574911e+03
  1.844621e+00    5.484778e+03
  1.867404e+00    5.401899e+03
  1.890187e+00    5.316952e+03
  1.912970e+00    5.242215e+03
  1.935753e+00    5.177736e+03
  1.958535e+00    5.116646e+03
  1.981318e+00    5.056503e+03
  2.004101e+00    4.997840e+03
  2.026884e+00    4.942901e+03
  2.049667e+00    4.884123e+03
  2.072449e+00    4.817163e+03
  2.095232e+00    4.753585e+03
  2.118015e+00    4.686006e+03
  2.140798e+00    4.619253e+03
  2.163581e+00    4.540522e+03
  2.186363e+00    4.456872e+03
  2.209146e+00    4.376967e+03
  2.231929e+00    4.287400e+03
  2.254712e+00    4.193357e+03
  2.277494e+00    4.100068e+03
  2.300277e+00    4.002311e+03
  2.323060e+00    3.900983e+03
  2.345843e+00    3.801775e+03
  2.368626e+00    3.700818e+03
  2.391408e+00    3.602230e+03
  2.414191e+00    3.502267e+03
  2.436974e+00    3.405537e+03
  2.459757e+00    3.315047e+03
  2.482540e+00    3.225135e+03
  2.505322e+00    3.137257e+03
  2.528105e+00    3.056177e+03
  2.550888e+00    2.983621e+03
  2.573671e+00    2.918554e+03
  2.596454e+00    2.861487e+03
  2.619236e+00    2.813684e+03
  2.642019e+00    2.768314e+03
  2.664802e+00    2.720661e+03
  2.687585e+00    2.678946e+03
  2.710368e+00    2.644746e+03
  2.733150e+00    2.623582e+03
  2.755933e+00    2.609247e+03
  2.778716e+00    2.603226e+03
  2.801499e+00    2.606486e+03
  2.824282e+00    2.611059e+03
  2.847064e+00    2.617040e+03
  2.869847e+00    2.624682e+03
  2.892630e+00    2.631896e+03
  2.915413e+00    2.636618e+03
  2.938196e+00    2.639091e+03
  2.960978e+00    2.638347e+03
  2.983761e+00    2.635716e+03
  3.006544e+00    2.631126e+03
  3.029327e+00    2.625125e+03
  3.052110e+00    2.617329e+03
  3.074892e+00    2.605651e+03
  3.097675e+00    2.592090e+03
  3.120458e+00    2.578979e+03
  3.143241e+00    2.566294e+03
  3.166023e+00    2.553638e+03
  3.188806e+00    2.541917e+03
  3.211589e+00    2.532400e+03
  3.234372e+00    2.526233e+03
  3.257155e+00    2.522643e+03
  3.279937e+00    2.520961e+03
  3.302720e+00    2.515277e+03
  3.325503e+00    2.502615e+03
  3.348286e+00    2.483747e+03
  3.371069e+00    2.462436e+03
  3.393851e+00    2.444316e+03
  3.416634e+00    2.430054e+03
  3.439417e+00    2.419842e+03
  3.462200e+00    2.415816e+03
  3.484983e+00    2.415905e+03
  3.507765e+00    2.413805e+03
  3.530548e+00    2.413380e+03
  3.553331e+00    2.414648e+03
  3.576114e+00    2.418865e+03
  3.598897e+00    2.426253e+03
  3.621679e+00    2.438530e+03
  3.644462e+00    2.457948e+03
  3.667245e+00    2.477147e+03
  3.690028e+00    2.493903e+03
  3.712811e+00    2.507365e+03
  3.735593e+00    2.517389e+03
  3.758376e+00    2.523053e+03
  3.781159e+00    2.525358e+03
  3.803942e+00    2.527192e+03
  3.826725e+00    2.529163e+03
  3.849507e+00    2.532083e+03
  3.872290e+00    2.538334e+03
  3.895073e+00    2.550942e+03
  3.917856e+00    2.560198e+03
  3.940638e+00    2.565763e+03
  3.963421e+00    2.575339e+03
  3.986204e+00    2.586012e+03
  4.008987e+00    2.595505e+03
  4.031770e+00    2.604550e+03
  4.054552e+00    2.615734e+03
  4.077335e+00    2.629083e+03
  4.100118e+00    2.634768e+03
  4.122901e+00    2.642857e+03
  4.145684e+00    2.652582e+03
  4.168466e+00    2.663368e+03
  4.191249e+00    2.673705e+03
  4.214032e+00    2.682486e+03
  4.236815e+00    2.689854e+03
  4.259598e+00    2.688143e+03
  4.282380e+00    2.675818e+03
  4.305163e+00    2.666077e+03
  4.327946e+00    2.656309e+03
  4.350729e+00    2.646509e+03
  4.373512e+00    2.636715e+03
  4.396294e+00    2.627121e+03
  4.419077e+00    2.616713e+03
  4.441860e+00    2.604158e+03
  4.464643e+00    2.593401e+03
  4.487426e+00    2.588873e+03
  4.510208e+00    2.573985e+03
  4.532991e+00    2.556478e+03
  4.555774e+00    2.543903e+03
  4.578557e+00    2.531414e+03
  4.601340e+00    2.517395e+03
  4.624122e+00    2.501563e+03
  4.646905e+00    2.487416e+03
  4.669688e+00    2.474423e+03
  4.692471e+00    2.449101e+03
  4.715253e+00    2.427650e+03
  4.738036e+00    2.408521e+03
  4.760819e+00    2.389919e+03
  4.783602e+00    2.371788e+03
  4.806385e+00    2.355081e+03
  4.829167e+00    2.344570e+03
  4.851950e+00    2.330080e+03
  4.874733e+00    2.314323e+03
  4.897516e+00    2.305094e+03
  4.920299e+00    2.297567e+03
  4.943081e+00    2.290409e+03
  4.965864e+00    2.280825e+03
  4.988647e+00    2.269241e+03
  5.011430e+00    2.256684e+03
  5.034213e+00    2.236170e+03
  5.056995e+00    2.220649e+03
  5.079778e+00    2.211899e+03
  5.102561e+00    2.194070e+03
  5.125344e+00    2.178146e+03
  5.148127e+00    2.164988e+03
  5.170909e+00    2.152235e+03
  5.193692e+00    2.138233e+03
  5.216475e+00    2.124492e+03
  5.239258e+00    2.114071e+03
  5.262041e+00    2.100662e+03
  5.284823e+00    2.080887e+03
  5.307606e+00    2.065606e+03
  5.330389e+00    2.050774e+03
  5.353172e+00    2.034656e+03
  5.375955e+00    2.016315e+03
  5.398737e+00    1.996286e+03
  5.421520e+00    1.977276e+03
  5.444303e+00    1.950514e+03
  5.467086e+00    1.924997e+03
  5.489869e+00    1.901888e+03
  5.512651e+00    1.879587e+03
  5.535434e+00    1.858282e+03
  5.558217e+00    1.837914e+03
  5.581000e+00    1.820458e+03
  5.603782e+00    1.801454e+03
  5.626565e+00    1.779893e+03
  5.649348e+00    1.762949e+03
  5.672131e+00    1.746923e+03
  5.694914e+00    1.727251e+03
  5.717696e+00    1.711069e+03
  5.740479e+00    1.696877e+03
  5.763262e+00    1.683454e+03
  5.786045e+00    1.670772e+03
  5.808828e+00    1.660029e+03
  5.831610e+00    1.652188e+03
  5.854393e+00    1.640110e+03
  5.877176e+00    1.628373e+03
  5.899959e+00    1.619639e+03
  5.922742e+00    1.612185e+03
  5.945524e+00    1.605066e+03
  5.968307e+00    1.598047e+03
  5.991090e+00    1.592597e+03
  6.013873e+00    1.585501e+03
  6.036656e+00    1.574109e+03
  6.059438e+00    1.566666e+03
  6.082221e+00    1.560525e+03
  6.105004e+00    1.550342e+03
  6.127787e+00    1.542632e+03
  6.150570e+00    1.536718e+03
  6.173352e+00    1.531896e+03
  6.196135e+00    1.524256e+03
  6.218918e+00    1.516588e+03
  6.241701e+00    1.511005e+03
  6.264484e+00    1.503056e+03
  6.287266e+00    1.494704e+03
  6.310049e+00    1.487294e+03
  6.332832e+00    1.479989e+03
  6.355615e+00    1.472124e+03
  6.378397e+00    1.464650e+03
  6.401180e+00    1.458695e+03
  6.423963e+00    1.452505e+03
  6.446746e+00    1.443917e+03
  6.469529e+00    1.436920e+03
  6.492311e+00    1.430518e+03
  6.515094e+00    1.424326e+03
  6.537877e+00    1.418243e+03
  6.560660e+00    1.412370e+03
  6.583443e+00    1.406658e+03
  6.606225e+00    1.398062e+03
  6.629008e+00    1.389358e+03
  6.651791e+00    1.381892e+03
  6.674574e+00    1.373249e+03
  6.697357e+00    1.364946e+03
  6.720139e+00    1.358052e+03
  6.742922e+00    1.352455e+03
  6.765705e+00    1.346607e+03
  6.788488e+00    1.340575e+03
  6.811271e+00    1.335362e+03
  6.834053e+00    1.329655e+03
  6.856836e+00    1.322474e+03
  6.879619e+00    1.315246e+03
  6.902402e+00    1.308657e+03
  6.925185e+00    1.302711e+03
  6.947967e+00    1.297616e+03
  6.970750e+00    1.293781e+03
  6.993533e+00    1.290311e+03
  7.016316e+00    1.284928e+03
  7.039099e+00    1.279209e+03
  7.061881e+00    1.273713e+03
  7.084664e+00    1.268808e+03
  7.107447e+00    1.264210e+03
  7.130230e+00    1.259827e+03
  7.153013e+00    1.255642e+03
  7.175795e+00    1.251235e+03
  7.198578e+00    1.246869e+03
  7.221361e+00    1.243349e+03
  7.244144e+00    1.240607e+03
  7.266926e+00    1.238504e+03
  7.289709e+00    1.236988e+03
  7.312492e+00    1.235973e+03
  7.335275e+00    1.235636e+03
  7.358058e+00    1.235742e+03
  7.380840e+00    1.236110e+03
  7.403623e+00    1.236299e+03
  7.426406e+00    1.236174e+03
  7.449189e+00    1.236222e+03
  7.471972e+00    1.236690e+03
  7.494754e+00    1.237624e+03
  7.517537e+00    1.238791e+03
  7.540320e+00    1.240776e+03
  7.563103e+00    1.242806e+03
  7.585886e+00    1.244597e+03
  7.608668e+00    1.246035e+03
  7.631451e+00    1.247392e+03
  7.654234e+00    1.248780e+03
  7.677017e+00    1.249949e+03
  7.699800e+00    1.251375e+03
  7.722582e+00    1.253103e+03
  7.745365e+00    1.254696e+03
  7.768148e+00    1.256413e+03
  7.790931e+00    1.258246e+03
  7.813714e+00    1.259868e+03
  7.836496e+00    1.261383e+03
  7.859279e+00    1.262432e+03
  7.882062e+00    1.262736e+03
  7.904845e+00    1.262105e+03
  7.927628e+00    1.260612e+03
  7.950410e+00    1.259405e+03
  7.973193e+00    1.258232e+03
  7.995976e+00    1.256810e+03
  8.018759e+00    1.255468e+03
  8.041541e+00    1.253901e+03
  8.064324e+00    1.252028e+03
  8.087107e+00    1.249642e+03
  8.109890e+00    1.247175e+03
  8.132673e+00    1.245022e+03
  8.155455e+00    1.241866e+03
  8.178238e+00    1.238383e+03
  8.201021e+00    1.235335e+03
  8.223804e+00    1.232401e+03
  8.246587e+00    1.229362e+03
  8.269369e+00    1.226516e+03
  8.292152e+00    1.223508e+03
  8.314935e+00    1.220192e+03
  8.337718e+00    1.216624e+03
  8.360501e+00    1.213555e+03
  8.383283e+00    1.210902e+03
  8.406066e+00    1.208253e+03
  8.428849e+00    1.205056e+03
  8.451632e+00    1.201032e+03
  8.474415e+00    1.196539e+03
  8.497197e+00    1.192019e+03
  8.519980e+00    1.187583e+03
  8.542763e+00    1.183572e+03
  8.565546e+00    1.179833e+03
  8.588329e+00    1.176021e+03
  8.611111e+00    1.172491e+03
  8.633894e+00    1.168628e+03
  8.656677e+00    1.164971e+03
  8.679460e+00    1.161430e+03
  8.702243e+00    1.157943e+03
  8.725025e+00    1.154730e+03
  8.747808e+00    1.151642e+03
  8.770591e+00    1.148647e+03
  8.793374e+00    1.145511e+03
  8.816156e+00    1.142050e+03
  8.838939e+00    1.138817e+03
  8.861722e+00    1.135625e+03
  8.884505e+00    1.132540e+03
  8.907288e+00    1.129414e+03
  8.930070e+00    1.125753e+03
  8.952853e+00    1.121943e+03
  8.975636e+00    1.117958e+03
  8.998419e+00    1.113837e+03
  9.021202e+00    1.109610e+03
  9.043984e+00    1.105889e+03
  9.066767e+00    1.101953e+03
  9.089550e+00    1.097692e+03
  9.112333e+00    1.093501e+03
  9.135116e+00    1.089115e+03
  9.157898e+00    1.084515e+03
  9.180681e+00    1.079885e+03
  9.203464e+00    1.075215e+03
  9.226247e+00    1.070785e+03
  9.249030e+00    1.066263e+03
  9.271812e+00    1.062141e+03
  9.294595e+00    1.058169e+03
  9.317378e+00    1.053932e+03
  9.340161e+00    1.049619e+03
  9.362944e+00    1.045034e+03
  9.385726e+00    1.040184e+03
  9.408509e+00    1.035335e+03
  9.431292e+00    1.030741e+03
  9.454075e+00    1.026226e+03
  9.476858e+00    1.022144e+03
  9.499640e+00    1.018068e+03
  9.522423e+00    1.013744e+03
  9.545206e+00    1.008990e+03
  9.567989e+00    1.004264e+03
  9.590772e+00    9.996754e+02
  9.613554e+00    9.954368e+02
  9.636337e+00    9.911194e+02
  9.659120e+00    9.869501e+02
  9.681903e+00    9.828564e+02
  9.704685e+00    9.788433e+02
  9.727468e+00    9.749438e+02
  9.750251e+00    9.711884e+02
  9.773034e+00    9.679026e+02
  9.795817e+00    9.643024e+02
  9.818599e+00    9.606219e+02
  9.841382e+00    9.569882e+02
  9.864165e+00    9.539160e+02
  9.886948e+00    9.511816e+02
  9.909731e+00    9.484579e+02
  9.932513e+00    9.456857e+02
  9.955296e+00    9.429916e+02
  9.978079e+00    9.404580e+02
  1.000086e+01    9.381847e+02
  1.002364e+01    9.357996e+02
  1.004643e+01    9.334554e+02
  1.006921e+01    9.311026e+02
  1.009199e+01    9.289199e+02
  1.011478e+01    9.268583e+02
  1.013756e+01    9.247651e+02
  1.016034e+01    9.228033e+02
  1.018312e+01    9.208747e+02
  1.020591e+01    9.188522e+02
  1.022869e+01    9.169920e+02
  1.025147e+01    9.152358e+02
  1.027426e+01    9.134038e+02
  1.029704e+01    9.117030e+02
  1.031982e+01    9.100902e+02
  1.034260e+01    9.085137e+02
  1.036539e+01    9.068942e+02
  1.038817e+01    9.055102e+02
  1.041095e+01    9.042689e+02
  1.043373e+01    9.030435e+02
  1.045652e+01    9.017625e+02
  1.047930e+01    9.002276e+02
  1.050208e+01    8.988978e+02
  1.052487e+01    8.975899e+02
  1.054765e+01    8.965250e+02
  1.057043e+01    8.954702e+02
  1.059321e+01    8.942992e+02
  1.061600e+01    8.930184e+02
  1.063878e+01    8.913944e+02
  1.066156e+01    8.898424e+02
  1.068435e+01    8.882526e+02
  1.070713e+01    8.866798e+02
  1.072991e+01    8.850899e+02
  1.075269e+01    8.834676e+02
  1.077548e+01    8.816473e+02
  1.079826e+01    8.796082e+02
  1.082104e+01    8.777134e+02
  1.084383e+01    8.757714e+02
  1.086661e+01    8.737773e+02
  1.088939e+01    8.720674e+02
  1.091217e+01    8.704388e+02
  1.093496e+01    8.688605e+02
  1.095774e+01    8.672656e+02
  1.098052e+01    8.658782e+02
  1.100330e+01    8.645046e+02
  1.102609e+01    8.629922e+02
  1.104887e+01    8.614744e+02
  1.107165e+01    8.600581e+02
  1.109444e+01    8.585181e+02
  1.111722e+01    8.568900e+02
  1.114000e+01    8.550901e+02
  1.116278e+01    8.530278e+02
  1.118557e+01    8.510598e+02
  1.120835e+01    8.494566e+02
  1.123113e+01    8.478713e+02
  1.125392e+01    8.462599e+02
  1.127670e+01    8.446779e+02
  1.129948e+01    8.432451e+02
  1.132226e+01    8.418370e+02
  1.134505e+01    8.404035e+02
  1.136783e+01    8.388937e+02
  1.139061e+01    8.376005e+02
  1.141340e+01    8.363593e+02
  1.143618e+01    8.353207e+02
  1.145896e+01    8.343516e+02
  1.148174e+01    8.334478e+02
  1.150453e+01    8.326884e+02
  1.152731e+01    8.318011e+02
  1.155009e+01    8.310027e+02
  1.157287e+01    8.302590e+02
  1.159566e+01    8.293146e+02
  1.161844e+01    8.284119e+02
  1.164122e+01    8.276238e+02
  1.166401e+01    8.268688e+02
  1.168679e+01    8.262080e+02
  1.170957e+01    8.254798e+02
  1.173235e+01    8.246910e+02
  1.175514e+01    8.237724e+02
  1.177792e+01    8.231196e+02
  1.180070e+01    8.224607e+02
  1.182349e+01    8.217717e+02
  1.184627e+01    8.211827e+02
  1.186905e+01    8.207646e+02
  1.189183e+01    8.204269e+02
  1.191462e+01    8.200547e+02
  1.193740e+01    8.197150e+02
  1.196018e+01    8.194281e+02
  1.198296e+01    8.191533e+02
  1.200575e+01    8.189710e+02
  1.202853e+01    8.186661e+02
  1.205131e+01    8.182564e+02
  1.207410e+01    8.178837e+02
  1.209688e+01    8.175245e+02
  1.211966e+01    8.170809e+02
  1.214244e+01    8.166693e+02
  1.216523e+01    8.162644e+02
  1.218801e+01    8.157280e+02
  1.221079e+01    8.152254e+02
  1.223358e+01    8.147052e+02
  1.225636e+01    8.139678e+02
  1.227914e+01    8.131402e+02
  1.230192e+01    8.123852e+02
  1.232471e+01    8.115959e+02
  1.234749e+01    8.107830e+02
  1.237027e+01    8.098810e+02
  1.239306e+01    8.090402e+02
  1.241584e+01    8.080327e+02
  1.243862e+01    8.070662e+02
  1.246140e+01    8.061182e+02
  1.248419e+01    8.049315e+02
  1.250697e+01    8.036483e+02
  1.252975e+01    8.022918e+02
  1.255253e+01    8.008624e+02
  1.257532e+01    7.993380e+02
  1.259810e+01    7.977726e+02
  1.262088e+01    7.961706e+02
  1.264367e+01    7.945785e+02
  1.266645e+01    7.929920e+02
  1.268923e+01    7.911650e+02
  1.271201e+01    7.892781e+02
  1.273480e+01    7.874006e+02
  1.275758e+01    7.856399e+02
  1.278036e+01    7.838892e+02
  1.280315e+01    7.821295e+02
  1.282593e+01    7.804274e+02
  1.284871e+01    7.787176e+02
  1.287149e+01    7.769882e+02
  1.289428e+01    7.751780e+02
  1.291706e+01    7.733412e+02
  1.293984e+01    7.714709e+02
  1.296263e+01    7.695728e+02
  1.298541e+01    7.676812e+02
  1.300819e+01    7.657303e+02
  1.303097e+01    7.637570e+02
  1.305376e+01    7.618558e+02
  1.307654e+01    7.599513e+02
  1.309932e+01    7.579568e+02
  1.312210e+01    7.560417e+02
  1.314489e+01    7.541389e+02
  1.316767e+01    7.523083e+02
  1.319045e+01    7.505577e+02
  1.321324e+01    7.488186e+02
  1.323602e+01    7.470237e+02
  1.325880e+01    7.452658e+02
  1.328158e+01    7.436219e+02
  1.330437e+01    7.419920e+02
  1.332715e+01    7.404028e+02
  1.334993e+01    7.387252e+02
  1.337272e+01    7.370593e+02
  1.339550e+01    7.355089e+02
  1.341828e+01    7.338477e+02
  1.344106e+01    7.321826e+02
  1.346385e+01    7.305694e+02
  1.348663e+01    7.289813e+02
  1.350941e+01    7.273936e+02
  1.353219e+01    7.256689e+02
  1.355498e+01    7.239624e+02
  1.357776e+01    7.222319e+02
  1.360054e+01    7.206658e+02
  1.362333e+01    7.190589e+02
  1.364611e+01    7.175637e+02
  1.366889e+01    7.161372e+02
  1.369167e+01    7.147820e+02
  1.371446e+01    7.133561e+02
  1.373724e+01    7.119717e+02
  1.376002e+01    7.106259e+02
  1.378281e+01    7.093127e+02
  1.380559e+01    7.080680e+02
  1.382837e+01    7.068001e+02
  1.385115e+01    7.057328e+02
  1.387394e+01    7.046524e+02
  1.389672e+01    7.034663e+02
  1.391950e+01    7.022849e+02
  1.394229e+01    7.011573e+02
  1.396507e+01    6.999587e+02
  1.398785e+01    6.988494e+02
  1.401063e+01    6.976631e+02
  1.403342e+01    6.966531e+02
  1.405620e+01    6.956127e+02
  1.407898e+01    6.945222e+02
  1.410176e+01    6.934984e+02
  1.412455e+01    6.924987e+02
  1.414733e+01    6.915632e+02
  1.417011e+01    6.906223e+02
  1.419290e+01    6.896750e+02
  1.421568e+01    6.888257e+02
  1.423846e+01    6.879577e+02
  1.426124e+01    6.869883e+02
  1.428403e+01    6.860273e+02
  1.430681e+01    6.850399e+02
  1.432959e+01    6.839760e+02
  1.435238e+01    6.829293e+02
  1.437516e+01    6.820106e+02
  1.439794e+01    6.810604e+02
  1.442072e+01    6.801603e+02
  1.444351e+01    6.792717e+02
  1.446629e+01    6.784213e+02
  1.448907e+01    6.776483e+02
  1.451186e+01    6.768320e+02
  1.453464e+01    6.760428e+02
  1.455742e+01    6.752322e+02
  1.458020e+01    6.744458e+02
  1.460299e+01    6.736735e+02
  1.462577e+01    6.728754e+02
  1.464855e+01    6.720833e+02
  1.467133e+01    6.712346e+02
  1.469412e+01    6.704025e+02
  1.471690e+01    6.695672e+02
  1.473968e+01    6.687270e+02
  1.476247e+01    6.679443e+02
  1.478525e+01    6.671853e+02
  1.480803e+01    6.664668e+02
  1.483081e+01    6.656800e+02
  1.485360e+01    6.648567e+02
  1.487638e+01    6.640480e+02
  1.489916e+01    6.632785e+02
  1.492195e+01    6.624921e+02
  1.494473e+01    6.617592e+02
  1.496751e+01    6.609484e+02
  1.499029e+01    6.601700e+02
  1.501308e+01    6.594785e+02
  1.503586e+01    6.589428e+02
  1.505864e+01    6.579600e+02
  1.508142e+01    6.571480e+02
  1.510421e+01    6.563018e+02
  1.512699e+01    6.553646e+02
  1.514977e+01    6.543924e+02
  1.517256e+01    6.536038e+02
  1.519534e+01    6.528221e+02
  1.521812e+01    6.520257e+02
  1.524090e+01    6.512507e+02
  1.526369e+01    6.504299e+02
  1.528647e+01    6.496480e+02
  1.530925e+01    6.487625e+02
  1.533204e+01    6.479247e+02
  1.535482e+01    6.470773e+02
  1.537760e+01    6.461672e+02
  1.540038e+01    6.454153e+02
  1.542317e+01    6.446198e+02
  1.544595e+01    6.437391e+02
  1.546873e+01    6.428550e+02
  1.549152e+01    6.419229e+02
  1.551430e+01    6.410587e+02
  1.553708e+01    6.403193e+02
  1.555986e+01    6.395074e+02
  1.558265e+01    6.387043e+02
  1.560543e+01    6.378391e+02
  1.562821e+01    6.370482e+02
  1.565099e+01    6.362315e+02
  1.567378e+01    6.353437e+02
  1.569656e+01    6.344690e+02
  1.571934e+01    6.336232e+02
  1.574213e+01    6.327573e+02
  1.576491e+01    6.319185e+02
  1.578769e+01    6.310907e+02
  1.581047e+01    6.302701e+02
  1.583326e+01    6.294408e+02
  1.585604e+01    6.285738e+02
  1.587882e+01    6.276952e+02
  1.590161e+01    6.269128e+02
  1.592439e+01    6.261443e+02
  1.594717e+01    6.253439e+02
  1.596995e+01    6.245052e+02
  1.599274e+01    6.237549e+02
  1.601552e+01    6.230266e+02
  1.603830e+01    6.222349e+02
  1.606109e+01    6.214172e+02
  1.608387e+01    6.207354e+02
  1.610665e+01    6.200486e+02
  1.612943e+01    6.193406e+02
  1.615222e+01    6.185419e+02
  1.617500e+01    6.177278e+02
  1.619778e+01    6.170604e+02
  1.622056e+01    6.164113e+02
  1.624335e+01    6.156846e+02
  1.626613e+01    6.148663e+02
  1.628891e+01    6.141619e+02
  1.631170e+01    6.135470e+02
  1.633448e+01    6.128450e+02
  1.635726e+01    6.121100e+02
  1.638004e+01    6.114247e+02
  1.640283e+01    6.106367e+02
  1.642561e+01    6.099473e+02
  1.644839e+01    6.092340e+02
  1.647118e+01    6.085448e+02
  1.649396e+01    6.077874e+02
  1.651674e+01    6.070142e+02
  1.653952e+01    6.062891e+02
  1.656231e+01    6.055281e+02
  1.658509e+01    6.047003e+02
  1.660787e+01    6.039399e+02
  1.663065e+01    6.031666e+02
  1.665344e+01    6.024385e+02
  1.667622e+01    6.016339e+02
  1.669900e+01    6.008983e+02
  1.672179e+01    6.001074e+02
  1.674457e+01    5.992126e+02
  1.676735e+01    5.983964e+02
  1.679013e+01    5.975152e+02
  1.681292e+01    5.966086e+02
  1.683570e+01    5.956738e+02
  1.685848e+01    5.947271e+02
  1.688127e+01    5.938329e+02
  1.690405e+01    5.928724e+02
  1.692683e+01    5.920538e+02
  1.694961e+01    5.911102e+02
  1.697240e+01    5.901588e+02
  1.699518e+01    5.892211e+02
  1.701796e+01    5.882599e+02
  1.704075e+01    5.872726e+02
  1.706353e+01    5.862380e+02
  1.708631e+01    5.851624e+02
  1.710909e+01    5.841362e+02
  1.713188e+01    5.831395e+02
  1.715466e+01    5.820236e+02
  1.717744e+01    5.809530e+02
  1.720022e+01    5.799039e+02
  1.722301e+01    5.789658e+02
  1.724579e+01    5.779052e+02
  1.726857e+01    5.768854e+02
  1.729136e+01    5.758867e+02
  1.731414e+01    5.748474e+02
  1.733692e+01    5.737255e+02
  1.735970e+01    5.726714e+02
  1.738249e+01    5.715969e+02
  1.740527e+01    5.705121e+02
  1.742805e+01    5.694248e+02
  1.745084e+01    5.684037e+02
  1.747362e+01    5.673847e+02
  1.749640e+01    5.663266e+02
  1.751918e+01    5.652645e+02
  1.754197e+01    5.641594e+02
  1.756475e+01    5.631675e+02
  1.758753e+01    5.622007e+02
  1.761032e+01    5.611904e+02
  1.763310e+01    5.601921e+02
  1.765588e+01    5.591888e+02
  1.767866e+01    5.582506e+02
  1.770145e+01    5.572377e+02
  1.772423e+01    5.562161e+02
  1.774701e+01    5.552839e+02
  1.776979e+01    5.543727e+02
  1.779258e+01    5.533952e+02
  1.781536e+01    5.524631e+02
  1.783814e+01    5.515321e+02
  1.786093e+01    5.507016e+02
  1.788371e+01    5.497932e+02
  1.790649e+01    5.488599e+02
  1.792927e+01    5.479509e+02
  1.795206e+01    5.471066e+02
  1.797484e+01    5.462142e+02
  1.799762e+01    5.454133e+02
  1.802041e+01    5.445927e+02
  1.804319e+01    5.437581e+02
  1.806597e+01    5.429300e+02
  1.808875e+01    5.420206e+02
  1.811154e+01    5.411808e+02
  1.813432e+01    5.403642e+02
  1.815710e+01    5.395477e+02
  1.817989e+01    5.387760e+02
  1.820267e+01    5.378895e+02
  1.822545e+01    5.371263e+02
  1.824823e+01    5.363069e+02
  1.827102e+01    5.355366e+02
  1.829380e+01    5.347917e+02
  1.831658e+01    5.340342e+02
  1.833936e+01    5.332647e+02
  1.836215e+01    5.325320e+02
  1.838493e+01    5.317361e+02
  1.840771e+01    5.310120e+02
  1.843050e+01    5.303314e+02
  1.845328e+01    5.296486e+02
  1.847606e+01    5.288724e+02
  1.849884e+01    5.281367e+02
  1.852163e+01    5.274233e+02
  1.854441e+01    5.267325e+02
  1.856719e+01    5.259242e+02
  1.858998e+01    5.252734e+02
  1.861276e+01    5.245992e+02
  1.863554e+01    5.238831e+02
  1.865832e+01    5.231785e+02
  1.868111e+01    5.224969e+02
  1.870389e+01    5.218397e+02
  1.872667e+01    5.212337e+02
  1.874945e+01    5.205527e+02
  1.877224e+01    5.198563e+02
  1.879502e+01    5.191484e+02
  1.881780e+01    5.185366e+02
  1.884059e+01    5.178691e+02
  1.886337e+01    5.172283e+02
  1.888615e+01    5.165317e+02
  1.890893e+01    5.158547e+02
  1.893172e+01    5.151768e+02
  1.895450e+01    5.144918e+02
  1.897728e+01    5.138364e+02
  1.900007e+01    5.131683e+02
  1.902285e+01    5.125166e+02
  1.904563e+01    5.118959e+02
  1.906841e+01    5.112058e+02
  1.909120e+01    5.105272e+02
  1.911398e+01    5.098690e+02
  1.913676e+01    5.092310e+02
  1.915955e+01    5.084938e+02
  1.918233e+01    5.078809e+02
  1.920511e+01    5.072876e+02
  1.922789e+01    5.065851e+02
  1.925068e+01    5.058549e+02
  1.927346e+01    5.051922e+02
  1.929624e+01    5.045164e+02
  1.931902e+01    5.038244e+02
  1.934181e+01    5.032018e+02
  1.936459e+01    5.025123e+02
  1.938737e+01    5.017836e+02
  1.941016e+01    5.011038e+02
  1.943294e+01    5.004883e+02
  1.945572e+01    4.998140e+02
  1.947850e+01    4.991273e+02
  1.950129e+01    4.984073e+02
  1.952407e+01    4.977693e+02
  1.954685e+01    4.971013e+02
  1.956964e+01    4.964070e+02
  1.959242e+01    4.957543e+02
  1.961520e+01    4.950346e+02
  1.963798e+01    4.944405e+02
  1.966077e+01    4.937832e+02
  1.968355e+01    4.930215e+02
  1.970633e+01    4.922281e+02
  1.972912e+01    4.915701e+02
  1.975190e+01    4.908359e+02
  1.977468e+01    4.901395e+02
  1.979746e+01    4.894434e+02
  1.982025e+01    4.887566e+02
  1.984303e+01    4.880022e+02
  1.986581e+01    4.873262e+02
  1.988859e+01    4.866169e+02
  1.991138e+01    4.858840e+02
  1.993416e+01    4.851223e+02
  1.995694e+01    4.843671e+02
  1.997973e+01    4.836688e+02
  2.000251e+01    4.829420e+02
  2.002529e+01    4.821596e+02
  2.004807e+01    4.814442e+02
  2.007086e+01    4.806584e+02
  2.009364e+01    4.798706e+02
  2.011642e+01    4.791172e+02
  2.013921e+01    4.783213e+02
  2.016199e+01    4.775262e+02
  2.018477e+01    4.767751e+02
  2.020755e+01    4.759678e+02
  2.023034e+01    4.752249e+02
  2.025312e+01    4.744309e+02
  2.027590e+01    4.736007e+02
  2.029868e+01    4.728050e+02
  2.032147e+01    4.720049e+02
  2.034425e+01    4.712393e+02
  2.036703e+01    4.703899e+02
  2.038982e+01    4.696537e+02
  2.041260e+01    4.688986e+02
  2.043538e+01    4.681666e+02
  2.045816e+01    4.673701e+02
  2.048095e+01    4.666157e+02
  2.050373e+01    4.658476e+02
  2.052651e+01    4.651460e+02
  2.054930e+01    4.644153e+02
  2.057208e+01    4.636756e+02
  2.059486e+01    4.629685e+02
  2.061764e+01    4.622282e+02
  2.064043e+01    4.614935e+02
  2.066321e+01    4.607697e+02
  2.068599e+01    4.600911e+02
  2.070878e+01    4.594146e+02
  2.073156e+01    4.586501e+02
  2.075434e+01    4.578520e+02
  2.077712e+01    4.570429e+02
  2.079991e+01    4.562727e+02
  2.082269e+01    4.555571e+02
  2.084547e+01    4.548180e+02
  2.086825e+01    4.540483e+02
  2.089104e+01    4.533348e+02
  2.091382e+01    4.525349e+02
  2.093660e+01    4.518046e+02
  2.095939e+01    4.511065e+02
  2.098217e+01    4.503364e+02
  2.100495e+01    4.496298e+02
  2.102773e+01    4.489442e+02
  2.105052e+01    4.481045e+02
  2.107330e+01    4.473030e+02
  2.109608e+01    4.465269e+02
  2.111887e+01    4.457899e+02
  2.114165e+01    4.450822e+02
  2.116443e+01    4.443108e+02
  2.118721e+01    4.435694e+02
  2.121000e+01    4.428593e+02
  2.123278e+01    4.421409e+02
  2.125556e+01    4.413890e+02
  2.127835e+01    4.406633e+02
  2.130113e+01    4.398909e+02
  2.132391e+01    4.391280e+02
  2.134669e+01    4.383763e+02
  2.136948e+01    4.376151e+02
  2.139226e+01    4.368936e+02
  2.141504e+01    4.362827e+02
  2.143782e+01    4.358784e+02
  2.146061e+01    4.349800e+02
  2.148339e+01    4.341948e+02
  2.150617e+01    4.333571e+02
  2.152896e+01    4.325756e+02
  2.155174e+01    4.318207e+02
  2.157452e+01    4.310993e+02
  2.159730e+01    4.303555e+02
  2.162009e+01    4.295728e+02
  2.164287e+01    4.288358e+02
  2.166565e+01    4.281117e+02
  2.168844e+01    4.273628e+02
  2.171122e+01    4.266353e+02
  2.173400e+01    4.258898e+02
  2.175678e+01    4.251801e+02
  2.177957e+01    4.244758e+02
  2.180235e+01    4.236673e+02
  2.182513e+01    4.229397e+02
  2.184791e+01    4.222255e+02
  2.187070e+01    4.215410e+02
  2.189348e+01    4.208010e+02
  2.191626e+01    4.201017e+02
  2.193905e+01    4.193351e+02
  2.196183e+01    4.186575e+02
  2.198461e+01    4.179413e+02
  2.200739e+01    4.172698e+02
  2.203018e+01    4.165115e+02
  2.205296e+01    4.157775e+02
  2.207574e+01    4.150511e+02
  2.209853e+01    4.143599e+02
  2.212131e+01    4.136620e+02
  2.214409e+01    4.129540e+02
  2.216687e+01    4.122429e+02
  2.218966e+01    4.115571e+02
  2.221244e+01    4.108903e+02
  2.223522e+01    4.102031e+02
  2.225801e+01    4.094734e+02
  2.228079e+01    4.087809e+02
  2.230357e+01    4.080400e+02
  2.232635e+01    4.073212e+02
  2.234914e+01    4.066575e+02
  2.237192e+01    4.059868e+02
  2.239470e+01    4.052274e+02
  2.241748e+01    4.045880e+02
  2.244027e+01    4.039093e+02
  2.246305e+01    4.031928e+02
  2.248583e+01    4.025364e+02
  2.250862e+01    4.018550e+02
  2.253140e+01    4.011747e+02
  2.255418e+01    4.005386e+02
  2.257696e+01    3.998908e+02
  2.259975e+01    3.991955e+02
  2.262253e+01    3.985175e+02
  2.264531e+01    3.978642e+02
  2.266810e+01    3.971973e+02
  2.269088e+01    3.965124e+02
  2.271366e+01    3.958593e+02
  2.273644e+01    3.952278e+02
  2.275923e+01    3.945803e+02
  2.278201e+01    3.939415e+02
  2.280479e+01    3.933017e+02
  2.282758e+01    3.926252e+02
  2.285036e+01    3.919937e+02
  2.287314e+01    3.913451e+02
  2.289592e+01    3.906954e+02
  2.291871e+01    3.900122e+02
  2.294149e+01    3.893938e+02
  2.296427e+01    3.887377e+02
  2.298705e+01    3.880811e+02
  2.300984e+01    3.874229e+02
  2.303262e+01    3.867566e+02
  2.305540e+01    3.861133e+02
  2.307819e+01    3.854796e+02
  2.310097e+01    3.848279e+02
  2.312375e+01    3.841480e+02
  2.314653e+01    3.834874e+02
  2.316932e+01    3.828192e+02
  2.319210e+01    3.821331e+02
  2.321488e+01    3.815190e+02
  2.323767e+01    3.808907e+02
  2.326045e+01    3.802480e+02
  2.328323e+01    3.795693e+02
  2.330601e+01    3.789575e+02
  2.332880e+01    3.783113e+02
  2.335158e+01    3.776717e+02
  2.337436e+01    3.770533e+02
  2.339714e+01    3.764293e+02
  2.341993e+01    3.758120e+02
  2.344271e+01    3.751413e+02
  2.346549e+01    3.744756e+02
  2.348828e+01    3.737917e+02
  2.351106e+01    3.731260e+02
  2.353384e+01    3.725078e+02
  2.355662e+01    3.718718e+02
  2.357941e+01    3.712426e+02
  2.360219e+01    3.705768e+02
  2.362497e+01    3.699123e+02
  2.364776e+01    3.692969e+02
  2.367054e+01    3.686423e+02
  2.369332e+01    3.682690e+02
  2.371610e+01    3.677690e+02
  2.373889e+01    3.669151e+02
  2.376167e+01    3.661486e+02
  2.378445e+01    3.654867e+02
  2.380724e+01    3.648024e+02
  2.383002e+01    3.641461e+02
  2.385280e+01    3.634330e+02
  2.387558e+01    3.627401e+02
  2.389837e+01    3.620694e+02
  2.392115e+01    3.613864e+02
  2.394393e+01    3.607108e+02
  2.396671e+01    3.600604e+02
  2.398950e+01    3.593517e+02
  2.401228e+01    3.587322e+02
  2.403506e+01    3.581195e+02
  2.405785e+01    3.574558e+02
  2.408063e+01    3.567988e+02
  2.410341e+01    3.561327e+02
  2.412619e+01    3.554611e+02
  2.414898e+01    3.548111e+02
  2.417176e+01    3.541283e+02
  2.419454e+01    3.534768e+02
  2.421733e+01    3.528295e+02
  2.424011e+01    3.521864e+02
  2.426289e+01    3.515120e+02
  2.428567e+01    3.508882e+02
  2.430846e+01    3.501960e+02
  2.433124e+01    3.494945e+02
  2.435402e+01    3.488560e+02
  2.437681e+01    3.481884e+02
  2.439959e+01    3.475045e+02
  2.442237e+01    3.468824e+02
  2.444515e+01    3.461890e+02
  2.446794e+01    3.455573e+02
  2.449072e+01    3.448521e+02
  2.451350e+01    3.441713e+02
  2.453628e+01    3.435000e+02
  2.455907e+01    3.429010e+02
  2.458185e+01    3.422171e+02
  2.460463e+01    3.414672e+02
  2.462742e+01    3.407966e+02
  2.465020e+01    3.401568e+02
  2.467298e+01    3.395076e+02
  2.469576e+01    3.388568e+02
  2.471855e+01    3.381711e+02
  2.474133e+01    3.374864e+02
  2.476411e+01    3.368401e+02
  2.478690e+01    3.361935e+02
  2.480968e+01    3.355232e+02
  2.483246e+01    3.349037e+02
  2.485524e+01    3.342169e+02
  2.487803e+01    3.335470e+02
  2.490081e+01    3.328430e+02
  2.492359e+01    3.321768e+02
  2.494637e+01    3.315072e+02
  2.496916e+01    3.308159e+02
  2.499194e+01    3.301598e+02
  2.501472e+01    3.294965e+02
  2.503751e+01    3.288373e+02
  2.506029e+01    3.282072e+02
  2.508307e+01    3.275601e+02
  2.510585e+01    3.268648e+02
  2.512864e+01    3.261523e+02
  2.515142e+01    3.254790e+02
  2.517420e+01    3.248557e+02
  2.519699e+01    3.242155e+02
  2.521977e+01    3.235128e+02
  2.524255e+01    3.228400e+02
  2.526533e+01    3.222167e+02
  2.528812e+01    3.215838e+02
  2.531090e+01    3.209558e+02
  2.533368e+01    3.203206e+02
  2.535647e+01    3.197262e+02
  2.537925e+01    3.190325e+02
  2.540203e+01    3.184239e+02
  2.542481e+01    3.177761e+02
  2.544760e+01    3.171458e+02
  2.547038e+01    3.165240e+02
  2.549316e+01    3.159084e+02
  2.551594e+01    3.152603e+02
  2.553873e+01    3.146248e+02
  2.556151e+01    3.140139e+02
  2.558429e+01    3.133870e+02
  2.560708e+01    3.127609e+02
  2.562986e+01    3.120882e+02
  2.565264e+01    3.114272e+02
  2.567542e+01    3.107874e+02
  2.569821e+01    3.101868e+02
  2.572099e+01    3.096205e+02
  2.574377e+01    3.089484e+02
  2.576656e+01    3.083765e+02
  2.578934e+01    3.077709e+02
  2.581212e+01    3.071074e+02
  2.583490e+01    3.065038e+02
  2.585769e+01    3.058760e+02
  2.588047e+01    3.052713e+02
  2.590325e+01    3.046682e+02
  2.592604e+01    3.039921e+02
  2.594882e+01    3.033665e+02
  2.597160e+01    3.027769e+02
  2.599438e+01    3.021774e+02
  2.601717e+01    3.015769e+02
  2.603995e+01    3.009037e+02
  2.606273e+01    3.002915e+02
  2.608551e+01    2.997171e+02
  2.610830e+01    2.990962e+02
  2.613108e+01    2.984644e+02
  2.615386e+01    2.978176e+02
  2.617665e+01    2.972512e+02
  2.619943e+01    2.966143e+02
  2.622221e+01    2.960128e+02
  2.624499e+01    2.954087e+02
  2.626778e+01    2.948176e+02
  2.629056e+01    2.942029e+02
  2.631334e+01    2.936307e+02
  2.633613e+01    2.930082e+02
  2.635891e+01    2.923814e+02
  2.638169e+01    2.917545e+02
  2.640447e+01    2.911307e+02
  2.642726e+01    2.905196e+02
  2.645004e+01    2.899240e+02
  2.647282e+01    2.893086e+02
  2.649560e+01    2.887038e+02
  2.651839e+01    2.880772e+02
  2.654117e+01    2.874833e+02
  2.656395e+01    2.868513e+02
  2.658674e+01    2.862725e+02
  2.660952e+01    2.856795e+02
  2.663230e+01    2.850919e+02
  2.665508e+01    2.844816e+02
  2.667787e+01    2.838415e+02
  2.670065e+01    2.832366e+02
  2.672343e+01    2.826188e+02
  2.674622e+01    2.820572e+02
  2.676900e+01    2.814553e+02
  2.679178e+01    2.808671e+02
  2.681456e+01    2.802524e+02
  2.683735e+01    2.795984e+02
  2.686013e+01    2.790232e+02
  2.688291e+01    2.783946e+02
  2.690570e+01    2.778226e+02
  2.692848e+01    2.772147e+02
  2.695126e+01    2.766106e+02
  2.697404e+01    2.759851e+02
  2.699683e+01    2.754050e+02
  2.701961e+01    2.747886e+02
  2.704239e+01    2.741525e+02
  2.706517e+01    2.735533e+02
  2.708796e+01    2.729097e+02
  2.711074e+01    2.722994e+02
  2.713352e+01    2.716516e+02
  2.715631e+01    2.710730e+02
  2.717909e+01    2.705126e+02
  2.720187e+01    2.702016e+02
  2.722465e+01    2.704848e+02
  2.724744e+01    2.703503e+02
  2.727022e+01    2.701279e+02
  2.729300e+01    2.698188e+02
  2.731579e+01    2.694594e+02
  2.733857e+01    2.690979e+02
  2.736135e+01    2.686949e+02
  2.738413e+01    2.682634e+02
  2.740692e+01    2.677619e+02
  2.742970e+01    2.668568e+02
  2.745248e+01    2.660789e+02
  2.747527e+01    2.653936e+02
  2.749805e+01    2.647181e+02
  2.752083e+01    2.640095e+02
  2.754361e+01    2.633718e+02
  2.756640e+01    2.627163e+02
  2.758918e+01    2.619746e+02
  2.761196e+01    2.605956e+02
  2.763474e+01    2.593727e+02
  2.765753e+01    2.583001e+02
  2.768031e+01    2.573046e+02
  2.770309e+01    2.563853e+02
  2.772588e+01    2.554238e+02
  2.774866e+01    2.545204e+02
  2.777144e+01    2.536140e+02
  2.779422e+01    2.532398e+02
  2.781701e+01    2.534166e+02
  2.783979e+01    2.532007e+02
  2.786257e+01    2.528443e+02
  2.788536e+01    2.524241e+02
  2.790814e+01    2.519861e+02
  2.793092e+01    2.514996e+02
  2.795370e+01    2.510424e+02
  2.797649e+01    2.505370e+02
  2.799927e+01    2.499882e+02
  2.802205e+01    2.494438e+02
  2.804483e+01    2.489311e+02
  2.806762e+01    2.484407e+02
  2.809040e+01    2.479308e+02
  2.811318e+01    2.473954e+02
  2.813597e+01    2.468778e+02
  2.815875e+01    2.463521e+02
  2.818153e+01    2.457758e+02
  2.820431e+01    2.451939e+02
  2.822710e+01    2.446436e+02
  2.824988e+01    2.441672e+02
  2.827266e+01    2.436052e+02
  2.829545e+01    2.430668e+02
  2.831823e+01    2.425331e+02
  2.834101e+01    2.419796e+02
  2.836379e+01    2.413900e+02
  2.838658e+01    2.408433e+02
  2.840936e+01    2.402815e+02
  2.843214e+01    2.396968e+02
  2.845493e+01    2.391779e+02
  2.847771e+01    2.385682e+02
  2.850049e+01    2.380570e+02
  2.852327e+01    2.375355e+02
  2.854606e+01    2.369812e+02
  2.856884e+01    2.364160e+02
  2.859162e+01    2.358417e+02
  2.861440e+01    2.352915e+02
  2.863719e+01    2.347681e+02
  2.865997e+01    2.341926e+02
  2.868275e+01    2.336236e+02
  2.870554e+01    2.330429e+02
  2.872832e+01    2.324923e+02
  2.875110e+01    2.319763e+02
  2.877388e+01    2.314171e+02
  2.879667e+01    2.308424e+02
  2.881945e+01    2.302930e+02
  2.884223e+01    2.297289e+02
  2.886502e+01    2.291441e+02
  2.888780e+01    2.285984e+02
  2.891058e+01    2.280076e+02
  2.893336e+01    2.274986e+02
  2.895615e+01    2.269428e+02
  2.897893e+01    2.264119e+02
  2.900171e+01    2.258780e+02
  2.902450e+01    2.253296e+02
  2.904728e+01    2.247849e+02
  2.907006e+01    2.242180e+02
  2.909284e+01    2.236155e+02
  2.911563e+01    2.231506e+02
  2.913841e+01    2.225586e+02
  2.916119e+01    2.219922e+02
  2.918397e+01    2.214237e+02
  2.920676e+01    2.208737e+02
  2.922954e+01    2.202711e+02
  2.925232e+01    2.197164e+02
  2.927511e+01    2.191536e+02
  2.929789e+01    2.186232e+02
  2.932067e+01    2.180602e+02
  2.934345e+01    2.175555e+02
  2.936624e+01    2.169997e+02
  2.938902e+01    2.164660e+02
  2.941180e+01    2.159032e+02
  2.943459e+01    2.153770e+02
  2.945737e+01    2.148362e+02
  2.948015e+01    2.143100e+02
  2.950293e+01    2.137711e+02
  2.952572e+01    2.132478e+02
  2.954850e+01    2.126610e+02
  2.957128e+01    2.121217e+02
  2.959407e+01    2.116218e+02
  2.961685e+01    2.110676e+02
  2.963963e+01    2.105184e+02
  2.966241e+01    2.100091e+02
  2.968520e+01    2.094411e+02
  2.970798e+01    2.088489e+02
  2.973076e+01    2.083327e+02
  2.975354e+01    2.078535e+02
  2.977633e+01    2.073068e+02
  2.979911e+01    2.067857e+02
  2.982189e+01    2.062610e+02
  2.984468e+01    2.057687e+02
  2.986746e+01    2.051897e+02
  2.989024e+01    2.046844e+02
  2.991302e+01    2.041093e+02
  2.993581e+01    2.035995e+02
  2.995859e+01    2.030973e+02
  2.998137e+01    2.025794e+02
  3.000416e+01    2.020054e+02
  3.002694e+01    2.015430e+02
  3.004972e+01    2.009657e+02
  3.007250e+01    2.004802e+02
  3.009529e+01    1.999949e+02
  3.011807e+01    1.994254e+02
  3.014085e+01    1.989139e+02
  3.016363e+01    1.983915e+02
  3.018642e+01    1.978613e+02
  3.020920e+01    1.973557e+02
  3.023198e+01    1.968939e+02
  3.025477e+01    1.963793e+02
  3.027755e+01    1.958432e+02
  3.030033e+01    1.953098e+02
  3.032311e+01    1.947878e+02
  3.034590e+01    1.943329e+02
  3.036868e+01    1.937731e+02
  3.039146e+01    1.932207e+02
  3.041425e+01    1.927229e+02
  3.043703e+01    1.922535e+02
  3.045981e+01    1.917625e+02
  3.048259e+01    1.912690e+02
  3.050538e+01    1.908468e+02
  3.052816e+01    1.902736e+02
  3.055094e+01    1.897528e+02
  3.057373e+01    1.891635e+02
  3.059651e+01    1.886984e+02
  3.061929e+01    1.882632e+02
  3.064207e+01    1.877325e+02
  3.066486e+01    1.872301e+02
  3.068764e+01    1.867410e+02
  3.071042e+01    1.861928e+02
  3.073320e+01    1.857582e+02
  3.075599e+01    1.852828e+02
  3.077877e+01    1.847116e+02
  3.080155e+01    1.843631e+02
  3.082434e+01    1.837416e+02
  3.084712e+01    1.832837e+02
  3.086990e+01    1.826332e+02
  3.089268e+01    1.822119e+02
  3.091547e+01    1.816485e+02
  3.093825e+01    1.812988e+02
  3.096103e+01    1.806732e+02
  3.098382e+01    1.802929e+02
  3.100660e+01    1.798184e+02
  3.102938e+01    1.793193e+02
  3.105216e+01    1.788485e+02
  3.107495e+01    1.783686e+02
  3.109773e+01    1.779016e+02
  3.112051e+01    1.775144e+02
  3.114330e+01    1.769213e+02
  3.116608e+01    1.763531e+02
  3.118886e+01    1.759727e+02
  3.121164e+01    1.755495e+02
  3.123443e+01    1.751110e+02
  3.125721e+01    1.745303e+02
  3.127999e+01    1.741489e+02
  3.130277e+01    1.736197e+02
  3.132556e+01    1.729967e+02
  3.134834e+01    1.727636e+02
  3.137112e+01    1.723391e+02
  3.139391e+01    1.717374e+02
  3.141669e+01    1.713900e+02
  3.143947e+01    1.709596e+02
  3.146225e+01    1.703696e+02
  3.148504e+01    1.699023e+02
  3.150782e+01    1.692485e+02
  3.153060e+01    1.689590e+02
  3.155339e+01    1.685273e+02
  3.157617e+01    1.680952e+02
  3.159895e+01    1.675418e+02
  3.162173e+01    1.669931e+02
  3.164452e+01    1.666292e+02
  3.166730e+01    1.662450e+02
  3.169008e+01    1.657556e+02
  3.171286e+01    1.651609e+02
  3.173565e+01    1.647138e+02
  3.175843e+01    1.642814e+02
  3.178121e+01    1.637970e+02
  3.180400e+01    1.634758e+02
  3.182678e+01    1.628400e+02
  3.184956e+01    1.622410e+02
  3.187234e+01    1.618041e+02
  3.189513e+01    1.615233e+02
  3.191791e+01    1.609467e+02
  3.194069e+01    1.605297e+02
  3.196348e+01    1.600686e+02
  3.198626e+01    1.595725e+02
  3.200904e+01    1.591563e+02
  3.203182e+01    1.585569e+02
  3.205461e+01    1.580699e+02
  3.207739e+01    1.577301e+02
  3.210017e+01    1.572058e+02
  3.212296e+01    1.566941e+02
  3.214574e+01    1.561645e+02
  3.216852e+01    1.557893e+02
  3.219130e+01    1.553254e+02
  3.221409e+01    1.548100e+02
  3.223687e+01    1.543107e+02
  3.225965e+01    1.538292e+02
  3.228243e+01    1.533880e+02
  3.230522e+01    1.528160e+02
  3.232800e+01    1.521410e+02
  3.235078e+01    1.517813e+02
  3.237357e+01    1.512772e+02
  3.239635e+01    1.508495e+02
  3.241913e+01    1.502168e+02
  3.244191e+01    1.497506e+02
  3.246470e+01    1.493141e+02
  3.248748e+01    1.488828e+02
  3.251026e+01    1.481736e+02
  3.253305e+01    1.476897e+02
  3.255583e+01    1.472372e+02
  3.257861e+01    1.468144e+02
  3.260139e+01    1.462287e+02
  3.262418e+01    1.457546e+02
  3.264696e+01    1.453401e+02
  3.266974e+01    1.446556e+02
  3.269253e+01    1.442779e+02
  3.271531e+01    1.437812e+02
  3.273809e+01    1.433261e+02
  3.276087e+01    1.426488e+02
  3.278366e+01    1.421129e+02
  3.280644e+01    1.416624e+02
  3.282922e+01    1.411368e+02
  3.285200e+01    1.405085e+02
  3.287479e+01    1.400867e+02
  3.289757e+01    1.395467e+02
  3.292035e+01    1.389902e+02
  3.294314e+01    1.384057e+02
  3.296592e+01    1.379918e+02
  3.298870e+01    1.372507e+02
  3.301148e+01    1.367555e+02
  3.303427e+01    1.363567e+02
  3.305705e+01    1.357208e+02
  3.307983e+01    1.350486e+02
  3.310262e+01    1.345650e+02
  3.312540e+01    1.340167e+02
  3.314818e+01    1.332821e+02
  3.317096e+01    1.328818e+02
  3.319375e+01    1.322153e+02
  3.321653e+01    1.316764e+02
  3.323931e+01    1.309908e+02
  3.326209e+01    1.304118e+02
  3.328488e+01    1.296425e+02
  3.330766e+01    1.292185e+02
  3.333044e+01    1.283790e+02
  3.335323e+01    1.278015e+02
  3.337601e+01    1.271997e+02
  3.339879e+01    1.269599e+02
  3.342157e+01    1.267636e+02
  3.344436e+01    1.260197e+02
  3.346714e+01    1.252037e+02
  3.348992e+01    1.247952e+02
  3.351271e+01    1.245845e+02
  3.353549e+01    0.000000e+00
  3.355827e+01    0.000000e+00
  3.358105e+01    0.000000e+00
  3.360384e+01    0.000000e+00
  3.362662e+01    0.000000e+00
  3.364940e+01    0.000000e+00
  3.367219e+01    0.000000e+00
  3.369497e+01    0.000000e+00
  3.371775e+01    0.000000e+00
