# == pyFAI calibration ==
# Distance Sample to Detector: 0.21311058206280517 m
# PONI: 2.037e-01, 1.993e-01 m
# Rotations: -0.005459 0.000134 0.000000 rad
# 
# == Fit2d calibration ==
# Distance Sample-beamCenter: 213.114 mm
# Center: x=1002.134, y=1018.730 pix
# Tilt: 0.313 deg  TiltPlanRot: 1.411 deg
# 
# Detector Perkin detector	 PixelSize= 2.000e-04, 2.000e-04 m
#    Detector has a mask: False 
#    Detector has a dark current: False 
#    detector has a flat field: False 
# 
# Wavelength: 1.675e-11 m
# Mask applied: provided
# Dark current applied: False
# Flat field applied: False
# Polarization factor: None
# Normalization factor: 1.0
# --> data/chi_bkgsub_false/C_Tatania4-0.0-average.chi
#        q_A^-1             I 
  2.199784e-02    1.262642e+02
  4.478064e-02    1.265679e+02
  6.756343e-02    1.262014e+02
  9.034623e-02    1.278880e+02
  1.131290e-01    1.299236e+02
  1.359118e-01    1.322196e+02
  1.586946e-01    1.356860e+02
  1.814774e-01    1.394376e+02
  2.042602e-01    1.450304e+02
  2.270430e-01    1.542023e+02
  2.498258e-01    1.749568e+02
  2.726086e-01    2.102252e+02
  2.953914e-01    3.914865e+02
  3.181742e-01    6.183946e+02
  3.409570e-01    1.010492e+03
  3.637398e-01    1.431255e+03
  3.865226e-01    1.201675e+03
  4.093054e-01    8.607403e+02
  4.320881e-01    6.868314e+02
  4.548709e-01    6.240799e+02
  4.776537e-01    6.724257e+02
  5.004365e-01    7.200076e+02
  5.232193e-01    7.568564e+02
  5.460021e-01    8.039103e+02
  5.687849e-01    8.700272e+02
  5.915677e-01    9.494930e+02
  6.143505e-01    1.033542e+03
  6.371333e-01    1.154803e+03
  6.599161e-01    1.274733e+03
  6.826989e-01    1.395843e+03
  7.054817e-01    1.502600e+03
  7.282645e-01    1.584431e+03
  7.510473e-01    1.646921e+03
  7.738301e-01    1.692549e+03
  7.966129e-01    1.735413e+03
  8.193956e-01    1.779363e+03
  8.421784e-01    1.823703e+03
  8.649612e-01    1.871751e+03
  8.877440e-01    1.923738e+03
  9.105268e-01    1.975839e+03
  9.333096e-01    2.033214e+03
  9.560924e-01    2.095577e+03
  9.788752e-01    2.159841e+03
  1.001658e+00    2.230059e+03
  1.024441e+00    2.304293e+03
  1.047224e+00    2.383032e+03
  1.070006e+00    2.469927e+03
  1.092789e+00    2.560575e+03
  1.115572e+00    2.655919e+03
  1.138355e+00    2.760748e+03
  1.161138e+00    2.869447e+03
  1.183920e+00    2.984318e+03
  1.206703e+00    3.108973e+03
  1.229486e+00    3.234661e+03
  1.252269e+00    3.370510e+03
  1.275052e+00    3.515802e+03
  1.297834e+00    3.655011e+03
  1.320617e+00    3.805312e+03
  1.343400e+00    3.960707e+03
  1.366183e+00    4.113879e+03
  1.388966e+00    4.273827e+03
  1.411748e+00    4.432764e+03
  1.434531e+00    4.590288e+03
  1.457314e+00    4.746873e+03
  1.480097e+00    4.888878e+03
  1.502879e+00    5.025250e+03
  1.525662e+00    5.153965e+03
  1.548445e+00    5.266917e+03
  1.571228e+00    5.366723e+03
  1.594011e+00    5.452375e+03
  1.616793e+00    5.525801e+03
  1.639576e+00    5.577805e+03
  1.662359e+00    5.611531e+03
  1.685142e+00    5.636596e+03
  1.707925e+00    5.640126e+03
  1.730707e+00    5.628747e+03
  1.753490e+00    5.610742e+03
  1.776273e+00    5.583750e+03
  1.799056e+00    5.548037e+03
  1.821839e+00    5.499395e+03
  1.844621e+00    5.449965e+03
  1.867404e+00    5.402742e+03
  1.890187e+00    5.341499e+03
  1.912970e+00    5.281182e+03
  1.935753e+00    5.224591e+03
  1.958535e+00    5.167812e+03
  1.981318e+00    5.110086e+03
  2.004101e+00    5.052785e+03
  2.026884e+00    4.998807e+03
  2.049667e+00    4.941184e+03
  2.072449e+00    4.876340e+03
  2.095232e+00    4.817507e+03
  2.118015e+00    4.759503e+03
  2.140798e+00    4.701941e+03
  2.163581e+00    4.632755e+03
  2.186363e+00    4.546178e+03
  2.209146e+00    4.453729e+03
  2.231929e+00    4.353377e+03
  2.254712e+00    4.253912e+03
  2.277494e+00    4.158670e+03
  2.300277e+00    4.059868e+03
  2.323060e+00    3.957577e+03
  2.345843e+00    3.857732e+03
  2.368626e+00    3.755919e+03
  2.391408e+00    3.656998e+03
  2.414191e+00    3.557837e+03
  2.436974e+00    3.463986e+03
  2.459757e+00    3.379652e+03
  2.482540e+00    3.294073e+03
  2.505322e+00    3.202104e+03
  2.528105e+00    3.108126e+03
  2.550888e+00    3.019521e+03
  2.573671e+00    2.939279e+03
  2.596454e+00    2.869050e+03
  2.619236e+00    2.810313e+03
  2.642019e+00    2.759587e+03
  2.664802e+00    2.714001e+03
  2.687585e+00    2.678638e+03
  2.710368e+00    2.651935e+03
  2.733150e+00    2.636610e+03
  2.755933e+00    2.626646e+03
  2.778716e+00    2.623776e+03
  2.801499e+00    2.629112e+03
  2.824282e+00    2.634442e+03
  2.847064e+00    2.640067e+03
  2.869847e+00    2.650251e+03
  2.892630e+00    2.660074e+03
  2.915413e+00    2.665881e+03
  2.938196e+00    2.668894e+03
  2.960978e+00    2.668611e+03
  2.983761e+00    2.666668e+03
  3.006544e+00    2.663439e+03
  3.029327e+00    2.658454e+03
  3.052110e+00    2.650859e+03
  3.074892e+00    2.638340e+03
  3.097675e+00    2.623619e+03
  3.120458e+00    2.609492e+03
  3.143241e+00    2.596275e+03
  3.166023e+00    2.583154e+03
  3.188806e+00    2.569098e+03
  3.211589e+00    2.553130e+03
  3.234372e+00    2.536839e+03
  3.257155e+00    2.520772e+03
  3.279937e+00    2.506292e+03
  3.302720e+00    2.492615e+03
  3.325503e+00    2.480867e+03
  3.348286e+00    2.471470e+03
  3.371069e+00    2.462778e+03
  3.393851e+00    2.455241e+03
  3.416634e+00    2.448441e+03
  3.439417e+00    2.443097e+03
  3.462200e+00    2.443629e+03
  3.484983e+00    2.449089e+03
  3.507765e+00    2.453220e+03
  3.530548e+00    2.455988e+03
  3.553331e+00    2.453917e+03
  3.576114e+00    2.449239e+03
  3.598897e+00    2.446271e+03
  3.621679e+00    2.447972e+03
  3.644462e+00    2.455158e+03
  3.667245e+00    2.461593e+03
  3.690028e+00    2.468154e+03
  3.712811e+00    2.476217e+03
  3.735593e+00    2.486717e+03
  3.758376e+00    2.498114e+03
  3.781159e+00    2.509548e+03
  3.803942e+00    2.522110e+03
  3.826725e+00    2.534299e+03
  3.849507e+00    2.544868e+03
  3.872290e+00    2.555855e+03
  3.895073e+00    2.570513e+03
  3.917856e+00    2.582069e+03
  3.940638e+00    2.589730e+03
  3.963421e+00    2.600967e+03
  3.986204e+00    2.612566e+03
  4.008987e+00    2.623227e+03
  4.031770e+00    2.632999e+03
  4.054552e+00    2.645268e+03
  4.077335e+00    2.660811e+03
  4.100118e+00    2.669364e+03
  4.122901e+00    2.679757e+03
  4.145684e+00    2.687595e+03
  4.168466e+00    2.690383e+03
  4.191249e+00    2.689802e+03
  4.214032e+00    2.689295e+03
  4.236815e+00    2.693001e+03
  4.259598e+00    2.692678e+03
  4.282380e+00    2.685523e+03
  4.305163e+00    2.682291e+03
  4.327946e+00    2.677914e+03
  4.350729e+00    2.672419e+03
  4.373512e+00    2.665559e+03
  4.396294e+00    2.657775e+03
  4.419077e+00    2.648174e+03
  4.441860e+00    2.636000e+03
  4.464643e+00    2.625469e+03
  4.487426e+00    2.621062e+03
  4.510208e+00    2.605568e+03
  4.532991e+00    2.586112e+03
  4.555774e+00    2.570436e+03
  4.578557e+00    2.553931e+03
  4.601340e+00    2.536379e+03
  4.624122e+00    2.518369e+03
  4.646905e+00    2.503495e+03
  4.669688e+00    2.490706e+03
  4.692471e+00    2.466848e+03
  4.715253e+00    2.448437e+03
  4.738036e+00    2.432419e+03
  4.760819e+00    2.416405e+03
  4.783602e+00    2.399574e+03
  4.806385e+00    2.383298e+03
  4.829167e+00    2.372245e+03
  4.851950e+00    2.356587e+03
  4.874733e+00    2.338366e+03
  4.897516e+00    2.325929e+03
  4.920299e+00    2.314462e+03
  4.943081e+00    2.303873e+03
  4.965864e+00    2.292999e+03
  4.988647e+00    2.282722e+03
  5.011430e+00    2.273268e+03
  5.034213e+00    2.256506e+03
  5.056995e+00    2.244338e+03
  5.079778e+00    2.237938e+03
  5.102561e+00    2.222297e+03
  5.125344e+00    2.207643e+03
  5.148127e+00    2.195259e+03
  5.170909e+00    2.182772e+03
  5.193692e+00    2.168741e+03
  5.216475e+00    2.154866e+03
  5.239258e+00    2.143578e+03
  5.262041e+00    2.129007e+03
  5.284823e+00    2.107988e+03
  5.307606e+00    2.090979e+03
  5.330389e+00    2.073990e+03
  5.353172e+00    2.055632e+03
  5.375955e+00    2.036372e+03
  5.398737e+00    2.017249e+03
  5.421520e+00    2.000946e+03
  5.444303e+00    1.977082e+03
  5.467086e+00    1.953703e+03
  5.489869e+00    1.931791e+03
  5.512651e+00    1.910315e+03
  5.535434e+00    1.889393e+03
  5.558217e+00    1.869676e+03
  5.581000e+00    1.852837e+03
  5.603782e+00    1.833911e+03
  5.626565e+00    1.811610e+03
  5.649348e+00    1.793369e+03
  5.672131e+00    1.776444e+03
  5.694914e+00    1.755844e+03
  5.717696e+00    1.739004e+03
  5.740479e+00    1.724356e+03
  5.763262e+00    1.710668e+03
  5.786045e+00    1.697719e+03
  5.808828e+00    1.686538e+03
  5.831610e+00    1.677573e+03
  5.854393e+00    1.664290e+03
  5.877176e+00    1.650755e+03
  5.899959e+00    1.639862e+03
  5.922742e+00    1.629991e+03
  5.945524e+00    1.620782e+03
  5.968307e+00    1.612016e+03
  5.991090e+00    1.605947e+03
  6.013873e+00    1.599662e+03
  6.036656e+00    1.589872e+03
  6.059438e+00    1.584244e+03
  6.082221e+00    1.579478e+03
  6.105004e+00    1.569571e+03
  6.127787e+00    1.561794e+03
  6.150570e+00    1.555336e+03
  6.173352e+00    1.549688e+03
  6.196135e+00    1.541568e+03
  6.218918e+00    1.533894e+03
  6.241701e+00    1.528254e+03
  6.264484e+00    1.520560e+03
  6.287266e+00    1.512878e+03
  6.310049e+00    1.506169e+03
  6.332832e+00    1.499510e+03
  6.355615e+00    1.492370e+03
  6.378397e+00    1.485415e+03
  6.401180e+00    1.479614e+03
  6.423963e+00    1.473661e+03
  6.446746e+00    1.464969e+03
  6.469529e+00    1.457601e+03
  6.492311e+00    1.450421e+03
  6.515094e+00    1.442701e+03
  6.537877e+00    1.434682e+03
  6.560660e+00    1.427238e+03
  6.583443e+00    1.420647e+03
  6.606225e+00    1.411727e+03
  6.629008e+00    1.403412e+03
  6.651791e+00    1.397030e+03
  6.674574e+00    1.389582e+03
  6.697357e+00    1.381909e+03
  6.720139e+00    1.375206e+03
  6.742922e+00    1.368916e+03
  6.765705e+00    1.361629e+03
  6.788488e+00    1.354036e+03
  6.811271e+00    1.347246e+03
  6.834053e+00    1.340519e+03
  6.856836e+00    1.333067e+03
  6.879619e+00    1.326517e+03
  6.902402e+00    1.320296e+03
  6.925185e+00    1.314009e+03
  6.947967e+00    1.307491e+03
  6.970750e+00    1.301731e+03
  6.993533e+00    1.296572e+03
  7.016316e+00    1.290915e+03
  7.039099e+00    1.285963e+03
  7.061881e+00    1.281399e+03
  7.084664e+00    1.276809e+03
  7.107447e+00    1.272432e+03
  7.130230e+00    1.268345e+03
  7.153013e+00    1.264731e+03
  7.175795e+00    1.261434e+03
  7.198578e+00    1.258328e+03
  7.221361e+00    1.255885e+03
  7.244144e+00    1.253821e+03
  7.266926e+00    1.251902e+03
  7.289709e+00    1.250196e+03
  7.312492e+00    1.249140e+03
  7.335275e+00    1.248261e+03
  7.358058e+00    1.247701e+03
  7.380840e+00    1.247315e+03
  7.403623e+00    1.246790e+03
  7.426406e+00    1.246454e+03
  7.449189e+00    1.246834e+03
  7.471972e+00    1.247727e+03
  7.494754e+00    1.248922e+03
  7.517537e+00    1.250182e+03
  7.540320e+00    1.251773e+03
  7.563103e+00    1.253454e+03
  7.585886e+00    1.255293e+03
  7.608668e+00    1.257041e+03
  7.631451e+00    1.259090e+03
  7.654234e+00    1.261172e+03
  7.677017e+00    1.262802e+03
  7.699800e+00    1.264330e+03
  7.722582e+00    1.265869e+03
  7.745365e+00    1.267228e+03
  7.768148e+00    1.268411e+03
  7.790931e+00    1.269775e+03
  7.813714e+00    1.271143e+03
  7.836496e+00    1.272567e+03
  7.859279e+00    1.273785e+03
  7.882062e+00    1.274431e+03
  7.904845e+00    1.274713e+03
  7.927628e+00    1.274343e+03
  7.950410e+00    1.273922e+03
  7.973193e+00    1.273123e+03
  7.995976e+00    1.272157e+03
  8.018759e+00    1.270843e+03
  8.041541e+00    1.269137e+03
  8.064324e+00    1.267275e+03
  8.087107e+00    1.264854e+03
  8.109890e+00    1.262388e+03
  8.132673e+00    1.260247e+03
  8.155455e+00    1.257139e+03
  8.178238e+00    1.253806e+03
  8.201021e+00    1.250617e+03
  8.223804e+00    1.247414e+03
  8.246587e+00    1.244075e+03
  8.269369e+00    1.240820e+03
  8.292152e+00    1.237338e+03
  8.314935e+00    1.233552e+03
  8.337718e+00    1.229699e+03
  8.360501e+00    1.225848e+03
  8.383283e+00    1.222239e+03
  8.406066e+00    1.218792e+03
  8.428849e+00    1.215125e+03
  8.451632e+00    1.211420e+03
  8.474415e+00    1.207824e+03
  8.497197e+00    1.204180e+03
  8.519980e+00    1.200280e+03
  8.542763e+00    1.196590e+03
  8.565546e+00    1.193234e+03
  8.588329e+00    1.189935e+03
  8.611111e+00    1.186651e+03
  8.633894e+00    1.183060e+03
  8.656677e+00    1.179656e+03
  8.679460e+00    1.176337e+03
  8.702243e+00    1.172952e+03
  8.725025e+00    1.169873e+03
  8.747808e+00    1.166637e+03
  8.770591e+00    1.163513e+03
  8.793374e+00    1.160484e+03
  8.816156e+00    1.156833e+03
  8.838939e+00    1.153094e+03
  8.861722e+00    1.149107e+03
  8.884505e+00    1.145602e+03
  8.907288e+00    1.142083e+03
  8.930070e+00    1.138167e+03
  8.952853e+00    1.134447e+03
  8.975636e+00    1.130633e+03
  8.998419e+00    1.126807e+03
  9.021202e+00    1.122835e+03
  9.043984e+00    1.119153e+03
  9.066767e+00    1.115204e+03
  9.089550e+00    1.111169e+03
  9.112333e+00    1.107273e+03
  9.135116e+00    1.103208e+03
  9.157898e+00    1.098809e+03
  9.180681e+00    1.094156e+03
  9.203464e+00    1.089634e+03
  9.226247e+00    1.085087e+03
  9.249030e+00    1.080282e+03
  9.271812e+00    1.075737e+03
  9.294595e+00    1.071210e+03
  9.317378e+00    1.066448e+03
  9.340161e+00    1.061920e+03
  9.362944e+00    1.057164e+03
  9.385726e+00    1.052261e+03
  9.408509e+00    1.047513e+03
  9.431292e+00    1.043094e+03
  9.454075e+00    1.038645e+03
  9.476858e+00    1.034182e+03
  9.499640e+00    1.029841e+03
  9.522423e+00    1.025284e+03
  9.545206e+00    1.020564e+03
  9.567989e+00    1.016026e+03
  9.590772e+00    1.011530e+03
  9.613554e+00    1.007278e+03
  9.636337e+00    1.002929e+03
  9.659120e+00    9.988204e+02
  9.681903e+00    9.948600e+02
  9.704685e+00    9.909346e+02
  9.727468e+00    9.869649e+02
  9.750251e+00    9.832243e+02
  9.773034e+00    9.801666e+02
  9.795817e+00    9.766548e+02
  9.818599e+00    9.730771e+02
  9.841382e+00    9.694164e+02
  9.864165e+00    9.660541e+02
  9.886948e+00    9.630364e+02
  9.909731e+00    9.599366e+02
  9.932513e+00    9.570561e+02
  9.955296e+00    9.543619e+02
  9.978079e+00    9.518068e+02
  1.000086e+01    9.493466e+02
  1.002364e+01    9.468303e+02
  1.004643e+01    9.443258e+02
  1.006921e+01    9.418533e+02
  1.009199e+01    9.395501e+02
  1.011478e+01    9.374993e+02
  1.013756e+01    9.353253e+02
  1.016034e+01    9.332081e+02
  1.018312e+01    9.310582e+02
  1.020591e+01    9.288511e+02
  1.022869e+01    9.268235e+02
  1.025147e+01    9.249256e+02
  1.027426e+01    9.231144e+02
  1.029704e+01    9.215501e+02
  1.031982e+01    9.198875e+02
  1.034260e+01    9.183088e+02
  1.036539e+01    9.167059e+02
  1.038817e+01    9.151626e+02
  1.041095e+01    9.134750e+02
  1.043373e+01    9.118274e+02
  1.045652e+01    9.102411e+02
  1.047930e+01    9.086245e+02
  1.050208e+01    9.072109e+02
  1.052487e+01    9.057775e+02
  1.054765e+01    9.043204e+02
  1.057043e+01    9.028464e+02
  1.059321e+01    9.013427e+02
  1.061600e+01    8.997955e+02
  1.063878e+01    8.981268e+02
  1.066156e+01    8.966983e+02
  1.068435e+01    8.952866e+02
  1.070713e+01    8.938824e+02
  1.072991e+01    8.923250e+02
  1.075269e+01    8.907144e+02
  1.077548e+01    8.890435e+02
  1.079826e+01    8.873530e+02
  1.082104e+01    8.858158e+02
  1.084383e+01    8.841731e+02
  1.086661e+01    8.825069e+02
  1.088939e+01    8.810869e+02
  1.091217e+01    8.796624e+02
  1.093496e+01    8.781996e+02
  1.095774e+01    8.766000e+02
  1.098052e+01    8.749720e+02
  1.100330e+01    8.733301e+02
  1.102609e+01    8.715892e+02
  1.104887e+01    8.700523e+02
  1.107165e+01    8.685433e+02
  1.109444e+01    8.668951e+02
  1.111722e+01    8.653916e+02
  1.114000e+01    8.637519e+02
  1.116278e+01    8.619675e+02
  1.118557e+01    8.602660e+02
  1.120835e+01    8.588051e+02
  1.123113e+01    8.572103e+02
  1.125392e+01    8.556820e+02
  1.127670e+01    8.541926e+02
  1.129948e+01    8.527310e+02
  1.132226e+01    8.513458e+02
  1.134505e+01    8.498475e+02
  1.136783e+01    8.484575e+02
  1.139061e+01    8.471815e+02
  1.141340e+01    8.458538e+02
  1.143618e+01    8.445917e+02
  1.145896e+01    8.434498e+02
  1.148174e+01    8.424244e+02
  1.150453e+01    8.414540e+02
  1.152731e+01    8.402977e+02
  1.155009e+01    8.392386e+02
  1.157287e+01    8.382328e+02
  1.159566e+01    8.372529e+02
  1.161844e+01    8.363416e+02
  1.164122e+01    8.352823e+02
  1.166401e+01    8.344597e+02
  1.168679e+01    8.337065e+02
  1.170957e+01    8.329703e+02
  1.173235e+01    8.322363e+02
  1.175514e+01    8.315663e+02
  1.177792e+01    8.310541e+02
  1.180070e+01    8.306509e+02
  1.182349e+01    8.300506e+02
  1.184627e+01    8.294523e+02
  1.186905e+01    8.289768e+02
  1.189183e+01    8.284992e+02
  1.191462e+01    8.281381e+02
  1.193740e+01    8.277705e+02
  1.196018e+01    8.274507e+02
  1.198296e+01    8.272031e+02
  1.200575e+01    8.269127e+02
  1.202853e+01    8.265679e+02
  1.205131e+01    8.262111e+02
  1.207410e+01    8.259047e+02
  1.209688e+01    8.255027e+02
  1.211966e+01    8.250441e+02
  1.214244e+01    8.246784e+02
  1.216523e+01    8.243408e+02
  1.218801e+01    8.237733e+02
  1.221079e+01    8.233315e+02
  1.223358e+01    8.227648e+02
  1.225636e+01    8.221056e+02
  1.227914e+01    8.214451e+02
  1.230192e+01    8.206746e+02
  1.232471e+01    8.198889e+02
  1.234749e+01    8.190858e+02
  1.237027e+01    8.181481e+02
  1.239306e+01    8.173465e+02
  1.241584e+01    8.163766e+02
  1.243862e+01    8.154333e+02
  1.246140e+01    8.144081e+02
  1.248419e+01    8.131648e+02
  1.250697e+01    8.119964e+02
  1.252975e+01    8.106827e+02
  1.255253e+01    8.093049e+02
  1.257532e+01    8.079283e+02
  1.259810e+01    8.063818e+02
  1.262088e+01    8.048221e+02
  1.264367e+01    8.032899e+02
  1.266645e+01    8.017773e+02
  1.268923e+01    8.001351e+02
  1.271201e+01    7.984496e+02
  1.273480e+01    7.966027e+02
  1.275758e+01    7.947426e+02
  1.278036e+01    7.930450e+02
  1.280315e+01    7.912222e+02
  1.282593e+01    7.893730e+02
  1.284871e+01    7.876042e+02
  1.287149e+01    7.857562e+02
  1.289428e+01    7.838597e+02
  1.291706e+01    7.819704e+02
  1.293984e+01    7.800208e+02
  1.296263e+01    7.781191e+02
  1.298541e+01    7.761953e+02
  1.300819e+01    7.743022e+02
  1.303097e+01    7.723613e+02
  1.305376e+01    7.704016e+02
  1.307654e+01    7.683917e+02
  1.309932e+01    7.663259e+02
  1.312210e+01    7.645039e+02
  1.314489e+01    7.625674e+02
  1.316767e+01    7.606811e+02
  1.319045e+01    7.588602e+02
  1.321324e+01    7.569660e+02
  1.323602e+01    7.549824e+02
  1.325880e+01    7.531258e+02
  1.328158e+01    7.514208e+02
  1.330437e+01    7.496797e+02
  1.332715e+01    7.479255e+02
  1.334993e+01    7.461571e+02
  1.337272e+01    7.445080e+02
  1.339550e+01    7.428691e+02
  1.341828e+01    7.412146e+02
  1.344106e+01    7.395530e+02
  1.346385e+01    7.380580e+02
  1.348663e+01    7.365630e+02
  1.350941e+01    7.351047e+02
  1.353219e+01    7.335267e+02
  1.355498e+01    7.318267e+02
  1.357776e+01    7.300813e+02
  1.360054e+01    7.283857e+02
  1.362333e+01    7.267661e+02
  1.364611e+01    7.252959e+02
  1.366889e+01    7.238405e+02
  1.369167e+01    7.223594e+02
  1.371446e+01    7.209394e+02
  1.373724e+01    7.195855e+02
  1.376002e+01    7.182887e+02
  1.378281e+01    7.169454e+02
  1.380559e+01    7.156415e+02
  1.382837e+01    7.143875e+02
  1.385115e+01    7.132357e+02
  1.387394e+01    7.121760e+02
  1.389672e+01    7.109471e+02
  1.391950e+01    7.098102e+02
  1.394229e+01    7.086499e+02
  1.396507e+01    7.074367e+02
  1.398785e+01    7.062430e+02
  1.401063e+01    7.049810e+02
  1.403342e+01    7.038853e+02
  1.405620e+01    7.028278e+02
  1.407898e+01    7.017687e+02
  1.410176e+01    7.008265e+02
  1.412455e+01    6.997704e+02
  1.414733e+01    6.986381e+02
  1.417011e+01    6.977297e+02
  1.419290e+01    6.966337e+02
  1.421568e+01    6.956611e+02
  1.423846e+01    6.947727e+02
  1.426124e+01    6.939250e+02
  1.428403e+01    6.929969e+02
  1.430681e+01    6.919360e+02
  1.432959e+01    6.908599e+02
  1.435238e+01    6.899144e+02
  1.437516e+01    6.890298e+02
  1.439794e+01    6.881958e+02
  1.442072e+01    6.872956e+02
  1.444351e+01    6.863116e+02
  1.446629e+01    6.854092e+02
  1.448907e+01    6.845804e+02
  1.451186e+01    6.837889e+02
  1.453464e+01    6.830486e+02
  1.455742e+01    6.822004e+02
  1.458020e+01    6.814445e+02
  1.460299e+01    6.806028e+02
  1.462577e+01    6.797841e+02
  1.464855e+01    6.790870e+02
  1.467133e+01    6.781982e+02
  1.469412e+01    6.773718e+02
  1.471690e+01    6.765132e+02
  1.473968e+01    6.755826e+02
  1.476247e+01    6.748143e+02
  1.478525e+01    6.739310e+02
  1.480803e+01    6.730956e+02
  1.483081e+01    6.722805e+02
  1.485360e+01    6.715026e+02
  1.487638e+01    6.707692e+02
  1.489916e+01    6.700630e+02
  1.492195e+01    6.692881e+02
  1.494473e+01    6.685397e+02
  1.496751e+01    6.677131e+02
  1.499029e+01    6.669120e+02
  1.501308e+01    6.661417e+02
  1.503586e+01    6.656905e+02
  1.505864e+01    6.648226e+02
  1.508142e+01    6.639849e+02
  1.510421e+01    6.631035e+02
  1.512699e+01    6.621102e+02
  1.514977e+01    6.612649e+02
  1.517256e+01    6.605435e+02
  1.519534e+01    6.597191e+02
  1.521812e+01    6.589537e+02
  1.524090e+01    6.581739e+02
  1.526369e+01    6.573249e+02
  1.528647e+01    6.564712e+02
  1.530925e+01    6.556830e+02
  1.533204e+01    6.548773e+02
  1.535482e+01    6.540403e+02
  1.537760e+01    6.531644e+02
  1.540038e+01    6.524036e+02
  1.542317e+01    6.516094e+02
  1.544595e+01    6.507612e+02
  1.546873e+01    6.498931e+02
  1.549152e+01    6.490016e+02
  1.551430e+01    6.480864e+02
  1.553708e+01    6.472026e+02
  1.555986e+01    6.463333e+02
  1.558265e+01    6.455366e+02
  1.560543e+01    6.446680e+02
  1.562821e+01    6.438212e+02
  1.565099e+01    6.429604e+02
  1.567378e+01    6.420959e+02
  1.569656e+01    6.412952e+02
  1.571934e+01    6.404710e+02
  1.574213e+01    6.396194e+02
  1.576491e+01    6.388141e+02
  1.578769e+01    6.380027e+02
  1.581047e+01    6.371915e+02
  1.583326e+01    6.362422e+02
  1.585604e+01    6.354078e+02
  1.587882e+01    6.345447e+02
  1.590161e+01    6.336757e+02
  1.592439e+01    6.328813e+02
  1.594717e+01    6.320353e+02
  1.596995e+01    6.312764e+02
  1.599274e+01    6.305764e+02
  1.601552e+01    6.298127e+02
  1.603830e+01    6.290298e+02
  1.606109e+01    6.281913e+02
  1.608387e+01    6.274660e+02
  1.610665e+01    6.266354e+02
  1.612943e+01    6.259647e+02
  1.615222e+01    6.252668e+02
  1.617500e+01    6.245275e+02
  1.619778e+01    6.238741e+02
  1.622056e+01    6.230876e+02
  1.624335e+01    6.222726e+02
  1.626613e+01    6.214977e+02
  1.628891e+01    6.207289e+02
  1.631170e+01    6.200261e+02
  1.633448e+01    6.194012e+02
  1.635726e+01    6.187025e+02
  1.638004e+01    6.179679e+02
  1.640283e+01    6.171899e+02
  1.642561e+01    6.164479e+02
  1.644839e+01    6.157265e+02
  1.647118e+01    6.149820e+02
  1.649396e+01    6.142960e+02
  1.651674e+01    6.135087e+02
  1.653952e+01    6.128022e+02
  1.656231e+01    6.119302e+02
  1.658509e+01    6.111173e+02
  1.660787e+01    6.104080e+02
  1.663065e+01    6.096476e+02
  1.665344e+01    6.088828e+02
  1.667622e+01    6.081771e+02
  1.669900e+01    6.074109e+02
  1.672179e+01    6.065664e+02
  1.674457e+01    6.057278e+02
  1.676735e+01    6.049146e+02
  1.679013e+01    6.040021e+02
  1.681292e+01    6.030734e+02
  1.683570e+01    6.022171e+02
  1.685848e+01    6.012720e+02
  1.688127e+01    6.003715e+02
  1.690405e+01    5.994841e+02
  1.692683e+01    5.986905e+02
  1.694961e+01    5.977488e+02
  1.697240e+01    5.968270e+02
  1.699518e+01    5.958594e+02
  1.701796e+01    5.949492e+02
  1.704075e+01    5.939292e+02
  1.706353e+01    5.928528e+02
  1.708631e+01    5.918530e+02
  1.710909e+01    5.908052e+02
  1.713188e+01    5.896865e+02
  1.715466e+01    5.886309e+02
  1.717744e+01    5.876927e+02
  1.720022e+01    5.866375e+02
  1.722301e+01    5.856063e+02
  1.724579e+01    5.845373e+02
  1.726857e+01    5.835392e+02
  1.729136e+01    5.825013e+02
  1.731414e+01    5.814554e+02
  1.733692e+01    5.803887e+02
  1.735970e+01    5.792963e+02
  1.738249e+01    5.782516e+02
  1.740527e+01    5.771625e+02
  1.742805e+01    5.760549e+02
  1.745084e+01    5.749614e+02
  1.747362e+01    5.739363e+02
  1.749640e+01    5.728885e+02
  1.751918e+01    5.718149e+02
  1.754197e+01    5.707279e+02
  1.756475e+01    5.696551e+02
  1.758753e+01    5.686990e+02
  1.761032e+01    5.676205e+02
  1.763310e+01    5.666408e+02
  1.765588e+01    5.656091e+02
  1.767866e+01    5.646825e+02
  1.770145e+01    5.636453e+02
  1.772423e+01    5.627018e+02
  1.774701e+01    5.617651e+02
  1.776979e+01    5.607723e+02
  1.779258e+01    5.598510e+02
  1.781536e+01    5.589012e+02
  1.783814e+01    5.578799e+02
  1.786093e+01    5.569847e+02
  1.788371e+01    5.560183e+02
  1.790649e+01    5.551727e+02
  1.792927e+01    5.542407e+02
  1.795206e+01    5.533842e+02
  1.797484e+01    5.524857e+02
  1.799762e+01    5.515999e+02
  1.802041e+01    5.508062e+02
  1.804319e+01    5.498845e+02
  1.806597e+01    5.490455e+02
  1.808875e+01    5.482429e+02
  1.811154e+01    5.473250e+02
  1.813432e+01    5.465378e+02
  1.815710e+01    5.457713e+02
  1.817989e+01    5.449337e+02
  1.820267e+01    5.440944e+02
  1.822545e+01    5.432880e+02
  1.824823e+01    5.424980e+02
  1.827102e+01    5.417172e+02
  1.829380e+01    5.409289e+02
  1.831658e+01    5.401259e+02
  1.833936e+01    5.393626e+02
  1.836215e+01    5.385607e+02
  1.838493e+01    5.377403e+02
  1.840771e+01    5.369929e+02
  1.843050e+01    5.363394e+02
  1.845328e+01    5.356070e+02
  1.847606e+01    5.348127e+02
  1.849884e+01    5.341074e+02
  1.852163e+01    5.333708e+02
  1.854441e+01    5.326232e+02
  1.856719e+01    5.318752e+02
  1.858998e+01    5.312056e+02
  1.861276e+01    5.305002e+02
  1.863554e+01    5.298073e+02
  1.865832e+01    5.290815e+02
  1.868111e+01    5.283651e+02
  1.870389e+01    5.277101e+02
  1.872667e+01    5.270833e+02
  1.874945e+01    5.263464e+02
  1.877224e+01    5.256673e+02
  1.879502e+01    5.250074e+02
  1.881780e+01    5.243497e+02
  1.884059e+01    5.237339e+02
  1.886337e+01    5.231023e+02
  1.888615e+01    5.225057e+02
  1.890893e+01    5.217952e+02
  1.893172e+01    5.210610e+02
  1.895450e+01    5.203737e+02
  1.897728e+01    5.197247e+02
  1.900007e+01    5.189666e+02
  1.902285e+01    5.183438e+02
  1.904563e+01    5.177341e+02
  1.906841e+01    5.170946e+02
  1.909120e+01    5.164595e+02
  1.911398e+01    5.157631e+02
  1.913676e+01    5.150433e+02
  1.915955e+01    5.143922e+02
  1.918233e+01    5.136876e+02
  1.920511e+01    5.130980e+02
  1.922789e+01    5.124087e+02
  1.925068e+01    5.116749e+02
  1.927346e+01    5.109781e+02
  1.929624e+01    5.103084e+02
  1.931902e+01    5.095800e+02
  1.934181e+01    5.089401e+02
  1.936459e+01    5.082312e+02
  1.938737e+01    5.075759e+02
  1.941016e+01    5.069243e+02
  1.943294e+01    5.062454e+02
  1.945572e+01    5.055299e+02
  1.947850e+01    5.048679e+02
  1.950129e+01    5.041533e+02
  1.952407e+01    5.034940e+02
  1.954685e+01    5.028123e+02
  1.956964e+01    5.021670e+02
  1.959242e+01    5.015170e+02
  1.961520e+01    5.009069e+02
  1.963798e+01    5.002126e+02
  1.966077e+01    4.995230e+02
  1.968355e+01    4.987712e+02
  1.970633e+01    4.980253e+02
  1.972912e+01    4.973443e+02
  1.975190e+01    4.966493e+02
  1.977468e+01    4.959338e+02
  1.979746e+01    4.952009e+02
  1.982025e+01    4.944939e+02
  1.984303e+01    4.937988e+02
  1.986581e+01    4.931253e+02
  1.988859e+01    4.923860e+02
  1.991138e+01    4.916097e+02
  1.993416e+01    4.909025e+02
  1.995694e+01    4.901166e+02
  1.997973e+01    4.893712e+02
  2.000251e+01    4.885976e+02
  2.002529e+01    4.878427e+02
  2.004807e+01    4.871203e+02
  2.007086e+01    4.863295e+02
  2.009364e+01    4.855892e+02
  2.011642e+01    4.848009e+02
  2.013921e+01    4.840493e+02
  2.016199e+01    4.832923e+02
  2.018477e+01    4.825262e+02
  2.020755e+01    4.817370e+02
  2.023034e+01    4.809676e+02
  2.025312e+01    4.801629e+02
  2.027590e+01    4.793362e+02
  2.029868e+01    4.784716e+02
  2.032147e+01    4.776344e+02
  2.034425e+01    4.768570e+02
  2.036703e+01    4.761149e+02
  2.038982e+01    4.753629e+02
  2.041260e+01    4.745336e+02
  2.043538e+01    4.737820e+02
  2.045816e+01    4.730324e+02
  2.048095e+01    4.722812e+02
  2.050373e+01    4.715195e+02
  2.052651e+01    4.708266e+02
  2.054930e+01    4.700654e+02
  2.057208e+01    4.692848e+02
  2.059486e+01    4.685581e+02
  2.061764e+01    4.678870e+02
  2.064043e+01    4.671175e+02
  2.066321e+01    4.663536e+02
  2.068599e+01    4.655866e+02
  2.070878e+01    4.649220e+02
  2.073156e+01    4.641894e+02
  2.075434e+01    4.634084e+02
  2.077712e+01    4.626555e+02
  2.079991e+01    4.618652e+02
  2.082269e+01    4.611194e+02
  2.084547e+01    4.603385e+02
  2.086825e+01    4.595682e+02
  2.089104e+01    4.588414e+02
  2.091382e+01    4.581046e+02
  2.093660e+01    4.573478e+02
  2.095939e+01    4.566122e+02
  2.098217e+01    4.558714e+02
  2.100495e+01    4.551541e+02
  2.102773e+01    4.544137e+02
  2.105052e+01    4.536222e+02
  2.107330e+01    4.527939e+02
  2.109608e+01    4.520082e+02
  2.111887e+01    4.512730e+02
  2.114165e+01    4.505486e+02
  2.116443e+01    4.497759e+02
  2.118721e+01    4.489993e+02
  2.121000e+01    4.482777e+02
  2.123278e+01    4.475578e+02
  2.125556e+01    4.467608e+02
  2.127835e+01    4.459953e+02
  2.130113e+01    4.452970e+02
  2.132391e+01    4.445368e+02
  2.134669e+01    4.437334e+02
  2.136948e+01    4.429830e+02
  2.139226e+01    4.422552e+02
  2.141504e+01    4.416769e+02
  2.143782e+01    4.411837e+02
  2.146061e+01    4.402868e+02
  2.148339e+01    4.394683e+02
  2.150617e+01    4.386802e+02
  2.152896e+01    4.379502e+02
  2.155174e+01    4.371648e+02
  2.157452e+01    4.363844e+02
  2.159730e+01    4.356457e+02
  2.162009e+01    4.349205e+02
  2.164287e+01    4.341552e+02
  2.166565e+01    4.333484e+02
  2.168844e+01    4.326069e+02
  2.171122e+01    4.318616e+02
  2.173400e+01    4.310727e+02
  2.175678e+01    4.303733e+02
  2.177957e+01    4.296862e+02
  2.180235e+01    4.289140e+02
  2.182513e+01    4.281872e+02
  2.184791e+01    4.274366e+02
  2.187070e+01    4.266785e+02
  2.189348e+01    4.259359e+02
  2.191626e+01    4.252505e+02
  2.193905e+01    4.244733e+02
  2.196183e+01    4.237677e+02
  2.198461e+01    4.230492e+02
  2.200739e+01    4.223351e+02
  2.203018e+01    4.216230e+02
  2.205296e+01    4.208993e+02
  2.207574e+01    4.201942e+02
  2.209853e+01    4.194624e+02
  2.212131e+01    4.186943e+02
  2.214409e+01    4.179809e+02
  2.216687e+01    4.172737e+02
  2.218966e+01    4.166111e+02
  2.221244e+01    4.158967e+02
  2.223522e+01    4.152533e+02
  2.225801e+01    4.145468e+02
  2.228079e+01    4.138146e+02
  2.230357e+01    4.130392e+02
  2.232635e+01    4.123411e+02
  2.234914e+01    4.116357e+02
  2.237192e+01    4.109177e+02
  2.239470e+01    4.102133e+02
  2.241748e+01    4.095073e+02
  2.244027e+01    4.088449e+02
  2.246305e+01    4.081027e+02
  2.248583e+01    4.074305e+02
  2.250862e+01    4.067776e+02
  2.253140e+01    4.061449e+02
  2.255418e+01    4.054763e+02
  2.257696e+01    4.047384e+02
  2.259975e+01    4.040641e+02
  2.262253e+01    4.033759e+02
  2.264531e+01    4.027164e+02
  2.266810e+01    4.020484e+02
  2.269088e+01    4.013909e+02
  2.271366e+01    4.007103e+02
  2.273644e+01    4.000595e+02
  2.275923e+01    3.994105e+02
  2.278201e+01    3.987515e+02
  2.280479e+01    3.981176e+02
  2.282758e+01    3.974340e+02
  2.285036e+01    3.967485e+02
  2.287314e+01    3.960973e+02
  2.289592e+01    3.954838e+02
  2.291871e+01    3.948081e+02
  2.294149e+01    3.941272e+02
  2.296427e+01    3.934617e+02
  2.298705e+01    3.928313e+02
  2.300984e+01    3.921902e+02
  2.303262e+01    3.915216e+02
  2.305540e+01    3.908610e+02
  2.307819e+01    3.902073e+02
  2.310097e+01    3.895403e+02
  2.312375e+01    3.888656e+02
  2.314653e+01    3.882415e+02
  2.316932e+01    3.875518e+02
  2.319210e+01    3.868434e+02
  2.321488e+01    3.862465e+02
  2.323767e+01    3.856151e+02
  2.326045e+01    3.849746e+02
  2.328323e+01    3.842710e+02
  2.330601e+01    3.836683e+02
  2.332880e+01    3.830024e+02
  2.335158e+01    3.823112e+02
  2.337436e+01    3.816390e+02
  2.339714e+01    3.810100e+02
  2.341993e+01    3.804236e+02
  2.344271e+01    3.797849e+02
  2.346549e+01    3.790782e+02
  2.348828e+01    3.783755e+02
  2.351106e+01    3.776963e+02
  2.353384e+01    3.770035e+02
  2.355662e+01    3.764256e+02
  2.357941e+01    3.758347e+02
  2.360219e+01    3.751284e+02
  2.362497e+01    3.744483e+02
  2.364776e+01    3.738497e+02
  2.367054e+01    3.732275e+02
  2.369332e+01    3.728219e+02
  2.371610e+01    3.722753e+02
  2.373889e+01    3.714368e+02
  2.376167e+01    3.707124e+02
  2.378445e+01    3.700352e+02
  2.380724e+01    3.693260e+02
  2.383002e+01    3.686448e+02
  2.385280e+01    3.679564e+02
  2.387558e+01    3.672643e+02
  2.389837e+01    3.665835e+02
  2.392115e+01    3.658997e+02
  2.394393e+01    3.652086e+02
  2.396671e+01    3.645433e+02
  2.398950e+01    3.638632e+02
  2.401228e+01    3.632024e+02
  2.403506e+01    3.625147e+02
  2.405785e+01    3.618682e+02
  2.408063e+01    3.612387e+02
  2.410341e+01    3.606337e+02
  2.412619e+01    3.598734e+02
  2.414898e+01    3.592390e+02
  2.417176e+01    3.585861e+02
  2.419454e+01    3.579008e+02
  2.421733e+01    3.572330e+02
  2.424011e+01    3.565777e+02
  2.426289e+01    3.559550e+02
  2.428567e+01    3.552801e+02
  2.430846e+01    3.546449e+02
  2.433124e+01    3.539887e+02
  2.435402e+01    3.532587e+02
  2.437681e+01    3.525982e+02
  2.439959e+01    3.518855e+02
  2.442237e+01    3.512236e+02
  2.444515e+01    3.505156e+02
  2.446794e+01    3.498603e+02
  2.449072e+01    3.492149e+02
  2.451350e+01    3.485414e+02
  2.453628e+01    3.478635e+02
  2.455907e+01    3.472006e+02
  2.458185e+01    3.465077e+02
  2.460463e+01    3.457781e+02
  2.462742e+01    3.451069e+02
  2.465020e+01    3.444865e+02
  2.467298e+01    3.438058e+02
  2.469576e+01    3.431320e+02
  2.471855e+01    3.424512e+02
  2.474133e+01    3.417970e+02
  2.476411e+01    3.410621e+02
  2.478690e+01    3.403984e+02
  2.480968e+01    3.397342e+02
  2.483246e+01    3.391002e+02
  2.485524e+01    3.384209e+02
  2.487803e+01    3.377285e+02
  2.490081e+01    3.369966e+02
  2.492359e+01    3.363436e+02
  2.494637e+01    3.356761e+02
  2.496916e+01    3.350056e+02
  2.499194e+01    3.343531e+02
  2.501472e+01    3.336232e+02
  2.503751e+01    3.329351e+02
  2.506029e+01    3.323159e+02
  2.508307e+01    3.316869e+02
  2.510585e+01    3.310004e+02
  2.512864e+01    3.303265e+02
  2.515142e+01    3.296467e+02
  2.517420e+01    3.289347e+02
  2.519699e+01    3.282880e+02
  2.521977e+01    3.276108e+02
  2.524255e+01    3.269626e+02
  2.526533e+01    3.262874e+02
  2.528812e+01    3.255992e+02
  2.531090e+01    3.249520e+02
  2.533368e+01    3.243229e+02
  2.535647e+01    3.237839e+02
  2.537925e+01    3.230611e+02
  2.540203e+01    3.224405e+02
  2.542481e+01    3.218190e+02
  2.544760e+01    3.211684e+02
  2.547038e+01    3.205503e+02
  2.549316e+01    3.199313e+02
  2.551594e+01    3.192790e+02
  2.553873e+01    3.186359e+02
  2.556151e+01    3.179866e+02
  2.558429e+01    3.173013e+02
  2.560708e+01    3.166515e+02
  2.562986e+01    3.160005e+02
  2.565264e+01    3.154147e+02
  2.567542e+01    3.147285e+02
  2.569821e+01    3.141089e+02
  2.572099e+01    3.134756e+02
  2.574377e+01    3.128761e+02
  2.576656e+01    3.122670e+02
  2.578934e+01    3.116154e+02
  2.581212e+01    3.109994e+02
  2.583490e+01    3.104125e+02
  2.585769e+01    3.097897e+02
  2.588047e+01    3.091201e+02
  2.590325e+01    3.085020e+02
  2.592604e+01    3.078729e+02
  2.594882e+01    3.072409e+02
  2.597160e+01    3.066239e+02
  2.599438e+01    3.060123e+02
  2.601717e+01    3.053618e+02
  2.603995e+01    3.047308e+02
  2.606273e+01    3.041194e+02
  2.608551e+01    3.034665e+02
  2.610830e+01    3.028660e+02
  2.613108e+01    3.022849e+02
  2.615386e+01    3.016658e+02
  2.617665e+01    3.010405e+02
  2.619943e+01    3.003972e+02
  2.622221e+01    2.998148e+02
  2.624499e+01    2.991854e+02
  2.626778e+01    2.985739e+02
  2.629056e+01    2.979693e+02
  2.631334e+01    2.973792e+02
  2.633613e+01    2.967343e+02
  2.635891e+01    2.961433e+02
  2.638169e+01    2.955161e+02
  2.640447e+01    2.948800e+02
  2.642726e+01    2.942381e+02
  2.645004e+01    2.936225e+02
  2.647282e+01    2.929925e+02
  2.649560e+01    2.923380e+02
  2.651839e+01    2.917396e+02
  2.654117e+01    2.911646e+02
  2.656395e+01    2.905790e+02
  2.658674e+01    2.899408e+02
  2.660952e+01    2.893066e+02
  2.663230e+01    2.887183e+02
  2.665508e+01    2.880891e+02
  2.667787e+01    2.874782e+02
  2.670065e+01    2.868785e+02
  2.672343e+01    2.862430e+02
  2.674622e+01    2.856516e+02
  2.676900e+01    2.850324e+02
  2.679178e+01    2.844158e+02
  2.681456e+01    2.838108e+02
  2.683735e+01    2.832017e+02
  2.686013e+01    2.825947e+02
  2.688291e+01    2.819667e+02
  2.690570e+01    2.813426e+02
  2.692848e+01    2.807292e+02
  2.695126e+01    2.801422e+02
  2.697404e+01    2.795389e+02
  2.699683e+01    2.789019e+02
  2.701961e+01    2.783071e+02
  2.704239e+01    2.776313e+02
  2.706517e+01    2.770094e+02
  2.708796e+01    2.763977e+02
  2.711074e+01    2.757551e+02
  2.713352e+01    2.751159e+02
  2.715631e+01    2.745293e+02
  2.717909e+01    2.739195e+02
  2.720187e+01    2.736155e+02
  2.722465e+01    2.739072e+02
  2.724744e+01    2.737763e+02
  2.727022e+01    2.735495e+02
  2.729300e+01    2.732552e+02
  2.731579e+01    2.729048e+02
  2.733857e+01    2.724621e+02
  2.736135e+01    2.721035e+02
  2.738413e+01    2.716808e+02
  2.740692e+01    2.711966e+02
  2.742970e+01    2.702636e+02
  2.745248e+01    2.694001e+02
  2.747527e+01    2.686975e+02
  2.749805e+01    2.679995e+02
  2.752083e+01    2.672542e+02
  2.754361e+01    2.665838e+02
  2.756640e+01    2.659205e+02
  2.758918e+01    2.651318e+02
  2.761196e+01    2.637108e+02
  2.763474e+01    2.625186e+02
  2.765753e+01    2.614457e+02
  2.768031e+01    2.604048e+02
  2.770309e+01    2.594184e+02
  2.772588e+01    2.584709e+02
  2.774866e+01    2.575153e+02
  2.777144e+01    2.566032e+02
  2.779422e+01    2.562907e+02
  2.781701e+01    2.564449e+02
  2.783979e+01    2.561445e+02
  2.786257e+01    2.557146e+02
  2.788536e+01    2.552890e+02
  2.790814e+01    2.548629e+02
  2.793092e+01    2.543821e+02
  2.795370e+01    2.538654e+02
  2.797649e+01    2.533527e+02
  2.799927e+01    2.528037e+02
  2.802205e+01    2.523006e+02
  2.804483e+01    2.517718e+02
  2.806762e+01    2.512417e+02
  2.809040e+01    2.506834e+02
  2.811318e+01    2.502426e+02
  2.813597e+01    2.496227e+02
  2.815875e+01    2.491033e+02
  2.818153e+01    2.485437e+02
  2.820431e+01    2.479818e+02
  2.822710e+01    2.474005e+02
  2.824988e+01    2.468977e+02
  2.827266e+01    2.462854e+02
  2.829545e+01    2.457560e+02
  2.831823e+01    2.452271e+02
  2.834101e+01    2.446663e+02
  2.836379e+01    2.440892e+02
  2.838658e+01    2.435319e+02
  2.840936e+01    2.429659e+02
  2.843214e+01    2.423941e+02
  2.845493e+01    2.418769e+02
  2.847771e+01    2.412993e+02
  2.850049e+01    2.407056e+02
  2.852327e+01    2.401494e+02
  2.854606e+01    2.395995e+02
  2.856884e+01    2.390550e+02
  2.859162e+01    2.384786e+02
  2.861440e+01    2.379015e+02
  2.863719e+01    2.373555e+02
  2.865997e+01    2.368252e+02
  2.868275e+01    2.362207e+02
  2.870554e+01    2.356243e+02
  2.872832e+01    2.351281e+02
  2.875110e+01    2.345558e+02
  2.877388e+01    2.340006e+02
  2.879667e+01    2.334425e+02
  2.881945e+01    2.328836e+02
  2.884223e+01    2.322792e+02
  2.886502e+01    2.316593e+02
  2.888780e+01    2.311375e+02
  2.891058e+01    2.305139e+02
  2.893336e+01    2.299953e+02
  2.895615e+01    2.294652e+02
  2.897893e+01    2.288801e+02
  2.900171e+01    2.283449e+02
  2.902450e+01    2.278270e+02
  2.904728e+01    2.273074e+02
  2.907006e+01    2.266828e+02
  2.909284e+01    2.261129e+02
  2.911563e+01    2.255428e+02
  2.913841e+01    2.250247e+02
  2.916119e+01    2.245067e+02
  2.918397e+01    2.238338e+02
  2.920676e+01    2.232629e+02
  2.922954e+01    2.226824e+02
  2.925232e+01    2.221861e+02
  2.927511e+01    2.216372e+02
  2.929789e+01    2.210782e+02
  2.932067e+01    2.205584e+02
  2.934345e+01    2.199421e+02
  2.936624e+01    2.193875e+02
  2.938902e+01    2.188757e+02
  2.941180e+01    2.183241e+02
  2.943459e+01    2.178133e+02
  2.945737e+01    2.172328e+02
  2.948015e+01    2.166424e+02
  2.950293e+01    2.161421e+02
  2.952572e+01    2.156204e+02
  2.954850e+01    2.150711e+02
  2.957128e+01    2.144768e+02
  2.959407e+01    2.139434e+02
  2.961685e+01    2.134493e+02
  2.963963e+01    2.129400e+02
  2.966241e+01    2.123819e+02
  2.968520e+01    2.118124e+02
  2.970798e+01    2.112764e+02
  2.973076e+01    2.107627e+02
  2.975354e+01    2.102280e+02
  2.977633e+01    2.097107e+02
  2.979911e+01    2.091423e+02
  2.982189e+01    2.086427e+02
  2.984468e+01    2.081118e+02
  2.986746e+01    2.075564e+02
  2.989024e+01    2.070228e+02
  2.991302e+01    2.064955e+02
  2.993581e+01    2.060063e+02
  2.995859e+01    2.054257e+02
  2.998137e+01    2.049339e+02
  3.000416e+01    2.043676e+02
  3.002694e+01    2.039239e+02
  3.004972e+01    2.033464e+02
  3.007250e+01    2.027738e+02
  3.009529e+01    2.023336e+02
  3.011807e+01    2.017839e+02
  3.014085e+01    2.012578e+02
  3.016363e+01    2.006950e+02
  3.018642e+01    2.002281e+02
  3.020920e+01    1.996920e+02
  3.023198e+01    1.992053e+02
  3.025477e+01    1.987363e+02
  3.027755e+01    1.981777e+02
  3.030033e+01    1.976959e+02
  3.032311e+01    1.971221e+02
  3.034590e+01    1.966514e+02
  3.036868e+01    1.961819e+02
  3.039146e+01    1.956498e+02
  3.041425e+01    1.952096e+02
  3.043703e+01    1.946828e+02
  3.045981e+01    1.941072e+02
  3.048259e+01    1.936308e+02
  3.050538e+01    1.930706e+02
  3.052816e+01    1.926492e+02
  3.055094e+01    1.921787e+02
  3.057373e+01    1.917608e+02
  3.059651e+01    1.912988e+02
  3.061929e+01    1.906826e+02
  3.064207e+01    1.902063e+02
  3.066486e+01    1.895270e+02
  3.068764e+01    1.890896e+02
  3.071042e+01    1.886509e+02
  3.073320e+01    1.881421e+02
  3.075599e+01    1.876154e+02
  3.077877e+01    1.870751e+02
  3.080155e+01    1.866115e+02
  3.082434e+01    1.862133e+02
  3.084712e+01    1.856081e+02
  3.086990e+01    1.850722e+02
  3.089268e+01    1.846688e+02
  3.091547e+01    1.841397e+02
  3.093825e+01    1.835922e+02
  3.096103e+01    1.831023e+02
  3.098382e+01    1.825909e+02
  3.100660e+01    1.822524e+02
  3.102938e+01    1.817671e+02
  3.105216e+01    1.812318e+02
  3.107495e+01    1.806972e+02
  3.109773e+01    1.802560e+02
  3.112051e+01    1.797799e+02
  3.114330e+01    1.792231e+02
  3.116608e+01    1.787502e+02
  3.118886e+01    1.784105e+02
  3.121164e+01    1.778849e+02
  3.123443e+01    1.772920e+02
  3.125721e+01    1.769468e+02
  3.127999e+01    1.763652e+02
  3.130277e+01    1.759389e+02
  3.132556e+01    1.753995e+02
  3.134834e+01    1.749428e+02
  3.137112e+01    1.745595e+02
  3.139391e+01    1.741279e+02
  3.141669e+01    1.736081e+02
  3.143947e+01    1.731004e+02
  3.146225e+01    1.727123e+02
  3.148504e+01    1.722620e+02
  3.150782e+01    1.715634e+02
  3.153060e+01    1.712104e+02
  3.155339e+01    1.708789e+02
  3.157617e+01    1.703354e+02
  3.159895e+01    1.698681e+02
  3.162173e+01    1.694900e+02
  3.164452e+01    1.689348e+02
  3.166730e+01    1.683423e+02
  3.169008e+01    1.679826e+02
  3.171286e+01    1.675041e+02
  3.173565e+01    1.669829e+02
  3.175843e+01    1.665822e+02
  3.178121e+01    1.660677e+02
  3.180400e+01    1.655549e+02
  3.182678e+01    1.650676e+02
  3.184956e+01    1.647252e+02
  3.187234e+01    1.642480e+02
  3.189513e+01    1.637755e+02
  3.191791e+01    1.632060e+02
  3.194069e+01    1.627652e+02
  3.196348e+01    1.622426e+02
  3.198626e+01    1.618339e+02
  3.200904e+01    1.613604e+02
  3.203182e+01    1.608149e+02
  3.205461e+01    1.603986e+02
  3.207739e+01    1.599935e+02
  3.210017e+01    1.593691e+02
  3.212296e+01    1.589706e+02
  3.214574e+01    1.585189e+02
  3.216852e+01    1.580516e+02
  3.219130e+01    1.575970e+02
  3.221409e+01    1.570876e+02
  3.223687e+01    1.566172e+02
  3.225965e+01    1.560954e+02
  3.228243e+01    1.555213e+02
  3.230522e+01    1.550052e+02
  3.232800e+01    1.545623e+02
  3.235078e+01    1.540749e+02
  3.237357e+01    1.536748e+02
  3.239635e+01    1.531624e+02
  3.241913e+01    1.525990e+02
  3.244191e+01    1.520378e+02
  3.246470e+01    1.516019e+02
  3.248748e+01    1.510130e+02
  3.251026e+01    1.504912e+02
  3.253305e+01    1.501207e+02
  3.255583e+01    1.495761e+02
  3.257861e+01    1.490252e+02
  3.260139e+01    1.483964e+02
  3.262418e+01    1.477956e+02
  3.264696e+01    1.472520e+02
  3.266974e+01    1.468205e+02
  3.269253e+01    1.462971e+02
  3.271531e+01    1.458428e+02
  3.273809e+01    1.451114e+02
  3.276087e+01    1.447573e+02
  3.278366e+01    1.442515e+02
  3.280644e+01    1.437253e+02
  3.282922e+01    1.431850e+02
  3.285200e+01    1.426713e+02
  3.287479e+01    1.419536e+02
  3.289757e+01    1.414812e+02
  3.292035e+01    1.408543e+02
  3.294314e+01    1.404378e+02
  3.296592e+01    1.398544e+02
  3.298870e+01    1.393069e+02
  3.301148e+01    1.386080e+02
  3.303427e+01    1.382321e+02
  3.305705e+01    1.377185e+02
  3.307983e+01    1.371299e+02
  3.310262e+01    1.365401e+02
  3.312540e+01    1.359182e+02
  3.314818e+01    1.354520e+02
  3.317096e+01    1.349449e+02
  3.319375e+01    1.346528e+02
  3.321653e+01    1.341883e+02
  3.323931e+01    1.337126e+02
  3.326209e+01    1.333227e+02
  3.328488e+01    1.328919e+02
  3.330766e+01    1.323484e+02
  3.333044e+01    1.317778e+02
  3.335323e+01    1.310760e+02
  3.337601e+01    1.307705e+02
  3.339879e+01    1.302503e+02
  3.342157e+01    1.294987e+02
  3.344436e+01    1.296489e+02
  3.346714e+01    1.295000e+02
  3.348992e+01    1.281907e+02
  3.351271e+01    1.261452e+02
  3.353549e+01    0.000000e+00
  3.355827e+01    0.000000e+00
  3.358105e+01    0.000000e+00
  3.360384e+01    0.000000e+00
  3.362662e+01    0.000000e+00
  3.364940e+01    0.000000e+00
  3.367219e+01    0.000000e+00
  3.369497e+01    0.000000e+00
  3.371775e+01    0.000000e+00
