# == pyFAI calibration ==
# Distance Sample to Detector: 0.21311058206280517 m
# PONI: 2.037e-01, 1.993e-01 m
# Rotations: -0.005459 0.000134 0.000000 rad
# 
# == Fit2d calibration ==
# Distance Sample-beamCenter: 213.114 mm
# Center: x=1002.134, y=1018.730 pix
# Tilt: 0.313 deg  TiltPlanRot: 1.411 deg
# 
# Detector Perkin detector	 PixelSize= 2.000e-04, 2.000e-04 m
#    Detector has a mask: False 
#    Detector has a dark current: False 
#    detector has a flat field: False 
# 
# Wavelength: 1.675e-11 m
# Mask applied: provided
# Dark current applied: False
# Flat field applied: False
# Polarization factor: None
# Normalization factor: 1.0
# --> data/chi_bkgsub_false/C_Tatania2-40.0-average.chi
#        q_A^-1             I 
  2.199784e-02    1.274855e+02
  4.478064e-02    1.273508e+02
  6.756343e-02    1.275101e+02
  9.034623e-02    1.285457e+02
  1.131290e-01    1.307554e+02
  1.359118e-01    1.329249e+02
  1.586946e-01    1.369024e+02
  1.814774e-01    1.405713e+02
  2.042602e-01    1.460905e+02
  2.270430e-01    1.555502e+02
  2.498258e-01    1.773108e+02
  2.726086e-01    2.148733e+02
  2.953914e-01    4.059831e+02
  3.181742e-01    6.447615e+02
  3.409570e-01    1.039208e+03
  3.637398e-01    1.466743e+03
  3.865226e-01    1.191034e+03
  4.093054e-01    8.830448e+02
  4.320881e-01    7.119193e+02
  4.548709e-01    6.347187e+02
  4.776537e-01    6.824460e+02
  5.004365e-01    7.295200e+02
  5.232193e-01    7.662528e+02
  5.460021e-01    8.146826e+02
  5.687849e-01    8.781827e+02
  5.915677e-01    9.471317e+02
  6.143505e-01    1.037995e+03
  6.371333e-01    1.168812e+03
  6.599161e-01    1.288436e+03
  6.826989e-01    1.408716e+03
  7.054817e-01    1.516395e+03
  7.282645e-01    1.601599e+03
  7.510473e-01    1.667630e+03
  7.738301e-01    1.715088e+03
  7.966129e-01    1.758772e+03
  8.193956e-01    1.803863e+03
  8.421784e-01    1.848283e+03
  8.649612e-01    1.896073e+03
  8.877440e-01    1.949116e+03
  9.105268e-01    2.001958e+03
  9.333096e-01    2.059716e+03
  9.560924e-01    2.122855e+03
  9.788752e-01    2.187887e+03
  1.001658e+00    2.259831e+03
  1.024441e+00    2.335166e+03
  1.047224e+00    2.415135e+03
  1.070006e+00    2.502627e+03
  1.092789e+00    2.594583e+03
  1.115572e+00    2.691302e+03
  1.138355e+00    2.798259e+03
  1.161138e+00    2.908849e+03
  1.183920e+00    3.025830e+03
  1.206703e+00    3.152421e+03
  1.229486e+00    3.280635e+03
  1.252269e+00    3.419041e+03
  1.275052e+00    3.566725e+03
  1.297834e+00    3.708092e+03
  1.320617e+00    3.860904e+03
  1.343400e+00    4.019514e+03
  1.366183e+00    4.175903e+03
  1.388966e+00    4.338665e+03
  1.411748e+00    4.500116e+03
  1.434531e+00    4.659339e+03
  1.457314e+00    4.816949e+03
  1.480097e+00    4.960043e+03
  1.502879e+00    5.099029e+03
  1.525662e+00    5.230656e+03
  1.548445e+00    5.345651e+03
  1.571228e+00    5.446363e+03
  1.594011e+00    5.533037e+03
  1.616793e+00    5.607767e+03
  1.639576e+00    5.660960e+03
  1.662359e+00    5.696757e+03
  1.685142e+00    5.725342e+03
  1.707925e+00    5.735102e+03
  1.730707e+00    5.732515e+03
  1.753490e+00    5.723613e+03
  1.776273e+00    5.701167e+03
  1.799056e+00    5.662557e+03
  1.821839e+00    5.605393e+03
  1.844621e+00    5.544514e+03
  1.867404e+00    5.487985e+03
  1.890187e+00    5.420146e+03
  1.912970e+00    5.355272e+03
  1.935753e+00    5.295632e+03
  1.958535e+00    5.236313e+03
  1.981318e+00    5.176002e+03
  2.004101e+00    5.116690e+03
  2.026884e+00    5.061638e+03
  2.049667e+00    5.003022e+03
  2.072449e+00    4.937151e+03
  2.095232e+00    4.876892e+03
  2.118015e+00    4.817238e+03
  2.140798e+00    4.757680e+03
  2.163581e+00    4.686699e+03
  2.186363e+00    4.598771e+03
  2.209146e+00    4.505546e+03
  2.231929e+00    4.404658e+03
  2.254712e+00    4.304310e+03
  2.277494e+00    4.207748e+03
  2.300277e+00    4.107256e+03
  2.323060e+00    4.003323e+03
  2.345843e+00    3.902147e+03
  2.368626e+00    3.798993e+03
  2.391408e+00    3.698532e+03
  2.414191e+00    3.597925e+03
  2.436974e+00    3.502572e+03
  2.459757e+00    3.417088e+03
  2.482540e+00    3.330263e+03
  2.505322e+00    3.237568e+03
  2.528105e+00    3.143427e+03
  2.550888e+00    3.055497e+03
  2.573671e+00    2.976579e+03
  2.596454e+00    2.908038e+03
  2.619236e+00    2.851090e+03
  2.642019e+00    2.800934e+03
  2.664802e+00    2.754017e+03
  2.687585e+00    2.716614e+03
  2.710368e+00    2.687628e+03
  2.733150e+00    2.670754e+03
  2.755933e+00    2.659733e+03
  2.778716e+00    2.656125e+03
  2.801499e+00    2.661120e+03
  2.824282e+00    2.666911e+03
  2.847064e+00    2.673761e+03
  2.869847e+00    2.682873e+03
  2.892630e+00    2.692422e+03
  2.915413e+00    2.696935e+03
  2.938196e+00    2.699460e+03
  2.960978e+00    2.699198e+03
  2.983761e+00    2.696904e+03
  3.006544e+00    2.692873e+03
  3.029327e+00    2.687208e+03
  3.052110e+00    2.679431e+03
  3.074892e+00    2.667154e+03
  3.097675e+00    2.653312e+03
  3.120458e+00    2.639890e+03
  3.143241e+00    2.626991e+03
  3.166023e+00    2.613974e+03
  3.188806e+00    2.600365e+03
  3.211589e+00    2.586021e+03
  3.234372e+00    2.571747e+03
  3.257155e+00    2.558431e+03
  3.279937e+00    2.547021e+03
  3.302720e+00    2.535190e+03
  3.325503e+00    2.522500e+03
  3.348286e+00    2.509625e+03
  3.371069e+00    2.497417e+03
  3.393851e+00    2.487705e+03
  3.416634e+00    2.479817e+03
  3.439417e+00    2.474188e+03
  3.462200e+00    2.474292e+03
  3.484983e+00    2.479132e+03
  3.507765e+00    2.482632e+03
  3.530548e+00    2.485493e+03
  3.553331e+00    2.483878e+03
  3.576114e+00    2.480214e+03
  3.598897e+00    2.478695e+03
  3.621679e+00    2.482182e+03
  3.644462e+00    2.491714e+03
  3.667245e+00    2.500450e+03
  3.690028e+00    2.509538e+03
  3.712811e+00    2.519112e+03
  3.735593e+00    2.529885e+03
  3.758376e+00    2.540555e+03
  3.781159e+00    2.550179e+03
  3.803942e+00    2.560524e+03
  3.826725e+00    2.570988e+03
  3.849507e+00    2.580571e+03
  3.872290e+00    2.591307e+03
  3.895073e+00    2.606120e+03
  3.917856e+00    2.616538e+03
  3.940638e+00    2.623491e+03
  3.963421e+00    2.634300e+03
  3.986204e+00    2.645879e+03
  4.008987e+00    2.656473e+03
  4.031770e+00    2.666800e+03
  4.054552e+00    2.679884e+03
  4.077335e+00    2.696199e+03
  4.100118e+00    2.705125e+03
  4.122901e+00    2.715614e+03
  4.145684e+00    2.724025e+03
  4.168466e+00    2.728109e+03
  4.191249e+00    2.728901e+03
  4.214032e+00    2.729536e+03
  4.236815e+00    2.733126e+03
  4.259598e+00    2.731960e+03
  4.282380e+00    2.723648e+03
  4.305163e+00    2.718793e+03
  4.327946e+00    2.713076e+03
  4.350729e+00    2.706279e+03
  4.373512e+00    2.698321e+03
  4.396294e+00    2.689934e+03
  4.419077e+00    2.679968e+03
  4.441860e+00    2.667407e+03
  4.464643e+00    2.656659e+03
  4.487426e+00    2.652912e+03
  4.510208e+00    2.636603e+03
  4.532991e+00    2.616627e+03
  4.555774e+00    2.601523e+03
  4.578557e+00    2.585828e+03
  4.601340e+00    2.569112e+03
  4.624122e+00    2.551445e+03
  4.646905e+00    2.536742e+03
  4.669688e+00    2.523940e+03
  4.692471e+00    2.498642e+03
  4.715253e+00    2.478768e+03
  4.738036e+00    2.461280e+03
  4.760819e+00    2.444025e+03
  4.783602e+00    2.426679e+03
  4.806385e+00    2.410552e+03
  4.829167e+00    2.399522e+03
  4.851950e+00    2.383819e+03
  4.874733e+00    2.366079e+03
  4.897516e+00    2.353994e+03
  4.920299e+00    2.343149e+03
  4.943081e+00    2.333074e+03
  4.965864e+00    2.322401e+03
  4.988647e+00    2.311901e+03
  5.011430e+00    2.302168e+03
  5.034213e+00    2.284342e+03
  5.056995e+00    2.271341e+03
  5.079778e+00    2.264891e+03
  5.102561e+00    2.247856e+03
  5.125344e+00    2.232354e+03
  5.148127e+00    2.219432e+03
  5.170909e+00    2.206572e+03
  5.193692e+00    2.192331e+03
  5.216475e+00    2.178107e+03
  5.239258e+00    2.166909e+03
  5.262041e+00    2.152746e+03
  5.284823e+00    2.131569e+03
  5.307606e+00    2.114457e+03
  5.330389e+00    2.097613e+03
  5.353172e+00    2.079657e+03
  5.375955e+00    2.060280e+03
  5.398737e+00    2.040513e+03
  5.421520e+00    2.023520e+03
  5.444303e+00    1.998525e+03
  5.467086e+00    1.974059e+03
  5.489869e+00    1.951234e+03
  5.512651e+00    1.929010e+03
  5.535434e+00    1.907723e+03
  5.558217e+00    1.887542e+03
  5.581000e+00    1.870121e+03
  5.603782e+00    1.850535e+03
  5.626565e+00    1.828047e+03
  5.649348e+00    1.810248e+03
  5.672131e+00    1.793544e+03
  5.694914e+00    1.772562e+03
  5.717696e+00    1.755646e+03
  5.740479e+00    1.740819e+03
  5.763262e+00    1.726878e+03
  5.786045e+00    1.713434e+03
  5.808828e+00    1.701831e+03
  5.831610e+00    1.692998e+03
  5.854393e+00    1.680094e+03
  5.877176e+00    1.667191e+03
  5.899959e+00    1.657152e+03
  5.922742e+00    1.648078e+03
  5.945524e+00    1.638957e+03
  5.968307e+00    1.630592e+03
  5.991090e+00    1.624885e+03
  6.013873e+00    1.618292e+03
  6.036656e+00    1.607548e+03
  6.059438e+00    1.601550e+03
  6.082221e+00    1.596528e+03
  6.105004e+00    1.586517e+03
  6.127787e+00    1.578788e+03
  6.150570e+00    1.572342e+03
  6.173352e+00    1.566878e+03
  6.196135e+00    1.558304e+03
  6.218918e+00    1.550385e+03
  6.241701e+00    1.545044e+03
  6.264484e+00    1.537040e+03
  6.287266e+00    1.528666e+03
  6.310049e+00    1.521739e+03
  6.332832e+00    1.515158e+03
  6.355615e+00    1.507911e+03
  6.378397e+00    1.500524e+03
  6.401180e+00    1.494784e+03
  6.423963e+00    1.488752e+03
  6.446746e+00    1.479912e+03
  6.469529e+00    1.472703e+03
  6.492311e+00    1.465437e+03
  6.515094e+00    1.457980e+03
  6.537877e+00    1.450372e+03
  6.560660e+00    1.442773e+03
  6.583443e+00    1.436365e+03
  6.606225e+00    1.427660e+03
  6.629008e+00    1.419200e+03
  6.651791e+00    1.412758e+03
  6.674574e+00    1.404877e+03
  6.697357e+00    1.396756e+03
  6.720139e+00    1.389810e+03
  6.742922e+00    1.383505e+03
  6.765705e+00    1.376360e+03
  6.788488e+00    1.369000e+03
  6.811271e+00    1.362683e+03
  6.834053e+00    1.356206e+03
  6.856836e+00    1.348609e+03
  6.879619e+00    1.341601e+03
  6.902402e+00    1.335082e+03
  6.925185e+00    1.328609e+03
  6.947967e+00    1.322309e+03
  6.970750e+00    1.317076e+03
  6.993533e+00    1.312602e+03
  7.016316e+00    1.306843e+03
  7.039099e+00    1.301385e+03
  7.061881e+00    1.296524e+03
  7.084664e+00    1.291597e+03
  7.107447e+00    1.287156e+03
  7.130230e+00    1.282945e+03
  7.153013e+00    1.279232e+03
  7.175795e+00    1.275706e+03
  7.198578e+00    1.272289e+03
  7.221361e+00    1.269408e+03
  7.244144e+00    1.267094e+03
  7.266926e+00    1.265202e+03
  7.289709e+00    1.263593e+03
  7.312492e+00    1.262470e+03
  7.335275e+00    1.261782e+03
  7.358058e+00    1.261403e+03
  7.380840e+00    1.261232e+03
  7.403623e+00    1.261068e+03
  7.426406e+00    1.260873e+03
  7.449189e+00    1.261035e+03
  7.471972e+00    1.261849e+03
  7.494754e+00    1.263067e+03
  7.517537e+00    1.264356e+03
  7.540320e+00    1.266004e+03
  7.563103e+00    1.267709e+03
  7.585886e+00    1.269365e+03
  7.608668e+00    1.271048e+03
  7.631451e+00    1.272991e+03
  7.654234e+00    1.274987e+03
  7.677017e+00    1.276676e+03
  7.699800e+00    1.278285e+03
  7.722582e+00    1.279867e+03
  7.745365e+00    1.281212e+03
  7.768148e+00    1.282636e+03
  7.790931e+00    1.284316e+03
  7.813714e+00    1.285695e+03
  7.836496e+00    1.287015e+03
  7.859279e+00    1.288219e+03
  7.882062e+00    1.288816e+03
  7.904845e+00    1.288970e+03
  7.927628e+00    1.288256e+03
  7.950410e+00    1.287663e+03
  7.973193e+00    1.286953e+03
  7.995976e+00    1.285692e+03
  8.018759e+00    1.284253e+03
  8.041541e+00    1.282529e+03
  8.064324e+00    1.280410e+03
  8.087107e+00    1.277791e+03
  8.109890e+00    1.275297e+03
  8.132673e+00    1.272944e+03
  8.155455e+00    1.269686e+03
  8.178238e+00    1.266444e+03
  8.201021e+00    1.263407e+03
  8.223804e+00    1.260338e+03
  8.246587e+00    1.256946e+03
  8.269369e+00    1.253695e+03
  8.292152e+00    1.250116e+03
  8.314935e+00    1.246427e+03
  8.337718e+00    1.242683e+03
  8.360501e+00    1.239137e+03
  8.383283e+00    1.235673e+03
  8.406066e+00    1.232381e+03
  8.428849e+00    1.228823e+03
  8.451632e+00    1.224893e+03
  8.474415e+00    1.220942e+03
  8.497197e+00    1.217084e+03
  8.519980e+00    1.212900e+03
  8.542763e+00    1.208936e+03
  8.565546e+00    1.205465e+03
  8.588329e+00    1.202073e+03
  8.611111e+00    1.198766e+03
  8.633894e+00    1.195043e+03
  8.656677e+00    1.191509e+03
  8.679460e+00    1.188079e+03
  8.702243e+00    1.184630e+03
  8.725025e+00    1.181433e+03
  8.747808e+00    1.178219e+03
  8.770591e+00    1.175166e+03
  8.793374e+00    1.172052e+03
  8.816156e+00    1.168406e+03
  8.838939e+00    1.164734e+03
  8.861722e+00    1.160938e+03
  8.884505e+00    1.157359e+03
  8.907288e+00    1.153712e+03
  8.930070e+00    1.149858e+03
  8.952853e+00    1.146087e+03
  8.975636e+00    1.142203e+03
  8.998419e+00    1.138321e+03
  9.021202e+00    1.134209e+03
  9.043984e+00    1.130498e+03
  9.066767e+00    1.126534e+03
  9.089550e+00    1.122311e+03
  9.112333e+00    1.118134e+03
  9.135116e+00    1.113972e+03
  9.157898e+00    1.109378e+03
  9.180681e+00    1.104712e+03
  9.203464e+00    1.100072e+03
  9.226247e+00    1.095495e+03
  9.249030e+00    1.090654e+03
  9.271812e+00    1.086027e+03
  9.294595e+00    1.081503e+03
  9.317378e+00    1.076851e+03
  9.340161e+00    1.072388e+03
  9.362944e+00    1.067615e+03
  9.385726e+00    1.062749e+03
  9.408509e+00    1.058027e+03
  9.431292e+00    1.053444e+03
  9.454075e+00    1.048846e+03
  9.476858e+00    1.044493e+03
  9.499640e+00    1.040119e+03
  9.522423e+00    1.035524e+03
  9.545206e+00    1.030761e+03
  9.567989e+00    1.026055e+03
  9.590772e+00    1.021428e+03
  9.613554e+00    1.017133e+03
  9.636337e+00    1.012779e+03
  9.659120e+00    1.008544e+03
  9.681903e+00    1.004478e+03
  9.704685e+00    1.000503e+03
  9.727468e+00    9.966985e+02
  9.750251e+00    9.930591e+02
  9.773034e+00    9.896927e+02
  9.795817e+00    9.861087e+02
  9.818599e+00    9.825585e+02
  9.841382e+00    9.788936e+02
  9.864165e+00    9.754928e+02
  9.886948e+00    9.723868e+02
  9.909731e+00    9.693625e+02
  9.932513e+00    9.664983e+02
  9.955296e+00    9.637620e+02
  9.978079e+00    9.611492e+02
  1.000086e+01    9.586603e+02
  1.002364e+01    9.561962e+02
  1.004643e+01    9.537750e+02
  1.006921e+01    9.513665e+02
  1.009199e+01    9.491135e+02
  1.011478e+01    9.469797e+02
  1.013756e+01    9.446713e+02
  1.016034e+01    9.426439e+02
  1.018312e+01    9.405522e+02
  1.020591e+01    9.383110e+02
  1.022869e+01    9.363300e+02
  1.025147e+01    9.344405e+02
  1.027426e+01    9.326173e+02
  1.029704e+01    9.309792e+02
  1.031982e+01    9.293865e+02
  1.034260e+01    9.277344e+02
  1.036539e+01    9.261107e+02
  1.038817e+01    9.245677e+02
  1.041095e+01    9.229570e+02
  1.043373e+01    9.213329e+02
  1.045652e+01    9.198010e+02
  1.047930e+01    9.180961e+02
  1.050208e+01    9.166479e+02
  1.052487e+01    9.152573e+02
  1.054765e+01    9.137831e+02
  1.057043e+01    9.122495e+02
  1.059321e+01    9.108615e+02
  1.061600e+01    9.094534e+02
  1.063878e+01    9.079128e+02
  1.066156e+01    9.064942e+02
  1.068435e+01    9.050452e+02
  1.070713e+01    9.036428e+02
  1.072991e+01    9.019581e+02
  1.075269e+01    9.003301e+02
  1.077548e+01    8.985759e+02
  1.079826e+01    8.968037e+02
  1.082104e+01    8.950839e+02
  1.084383e+01    8.934434e+02
  1.086661e+01    8.918171e+02
  1.088939e+01    8.901323e+02
  1.091217e+01    8.886711e+02
  1.093496e+01    8.871387e+02
  1.095774e+01    8.855462e+02
  1.098052e+01    8.839580e+02
  1.100330e+01    8.823827e+02
  1.102609e+01    8.807001e+02
  1.104887e+01    8.790887e+02
  1.107165e+01    8.775764e+02
  1.109444e+01    8.759496e+02
  1.111722e+01    8.743328e+02
  1.114000e+01    8.727541e+02
  1.116278e+01    8.709431e+02
  1.118557e+01    8.691343e+02
  1.120835e+01    8.675865e+02
  1.123113e+01    8.659425e+02
  1.125392e+01    8.643579e+02
  1.127670e+01    8.627939e+02
  1.129948e+01    8.612991e+02
  1.132226e+01    8.597656e+02
  1.134505e+01    8.583907e+02
  1.136783e+01    8.569905e+02
  1.139061e+01    8.556055e+02
  1.141340e+01    8.542908e+02
  1.143618e+01    8.530621e+02
  1.145896e+01    8.519480e+02
  1.148174e+01    8.508679e+02
  1.150453e+01    8.499365e+02
  1.152731e+01    8.488920e+02
  1.155009e+01    8.479236e+02
  1.157287e+01    8.469708e+02
  1.159566e+01    8.459747e+02
  1.161844e+01    8.449534e+02
  1.164122e+01    8.439909e+02
  1.166401e+01    8.431452e+02
  1.168679e+01    8.425269e+02
  1.170957e+01    8.418301e+02
  1.173235e+01    8.411123e+02
  1.175514e+01    8.404109e+02
  1.177792e+01    8.398682e+02
  1.180070e+01    8.393255e+02
  1.182349e+01    8.387067e+02
  1.184627e+01    8.381468e+02
  1.186905e+01    8.376879e+02
  1.189183e+01    8.372446e+02
  1.191462e+01    8.368186e+02
  1.193740e+01    8.363503e+02
  1.196018e+01    8.360228e+02
  1.198296e+01    8.356585e+02
  1.200575e+01    8.353557e+02
  1.202853e+01    8.350653e+02
  1.205131e+01    8.347371e+02
  1.207410e+01    8.343891e+02
  1.209688e+01    8.340556e+02
  1.211966e+01    8.336221e+02
  1.214244e+01    8.332206e+02
  1.216523e+01    8.327737e+02
  1.218801e+01    8.322581e+02
  1.221079e+01    8.317253e+02
  1.223358e+01    8.311674e+02
  1.225636e+01    8.304595e+02
  1.227914e+01    8.296967e+02
  1.230192e+01    8.290023e+02
  1.232471e+01    8.282779e+02
  1.234749e+01    8.275397e+02
  1.237027e+01    8.266440e+02
  1.239306e+01    8.257376e+02
  1.241584e+01    8.247392e+02
  1.243862e+01    8.237068e+02
  1.246140e+01    8.226631e+02
  1.248419e+01    8.215601e+02
  1.250697e+01    8.203184e+02
  1.252975e+01    8.189490e+02
  1.255253e+01    8.175347e+02
  1.257532e+01    8.160721e+02
  1.259810e+01    8.145333e+02
  1.262088e+01    8.129272e+02
  1.264367e+01    8.113351e+02
  1.266645e+01    8.097442e+02
  1.268923e+01    8.080145e+02
  1.271201e+01    8.062221e+02
  1.273480e+01    8.043257e+02
  1.275758e+01    8.024943e+02
  1.278036e+01    8.007011e+02
  1.280315e+01    7.989083e+02
  1.282593e+01    7.970569e+02
  1.284871e+01    7.952610e+02
  1.287149e+01    7.933951e+02
  1.289428e+01    7.914350e+02
  1.291706e+01    7.895498e+02
  1.293984e+01    7.876230e+02
  1.296263e+01    7.857461e+02
  1.298541e+01    7.838242e+02
  1.300819e+01    7.818413e+02
  1.303097e+01    7.799174e+02
  1.305376e+01    7.779539e+02
  1.307654e+01    7.759217e+02
  1.309932e+01    7.738524e+02
  1.312210e+01    7.720627e+02
  1.314489e+01    7.701199e+02
  1.316767e+01    7.681212e+02
  1.319045e+01    7.662126e+02
  1.321324e+01    7.643177e+02
  1.323602e+01    7.624438e+02
  1.325880e+01    7.607430e+02
  1.328158e+01    7.589331e+02
  1.330437e+01    7.570728e+02
  1.332715e+01    7.553629e+02
  1.334993e+01    7.536472e+02
  1.337272e+01    7.519681e+02
  1.339550e+01    7.503789e+02
  1.341828e+01    7.486199e+02
  1.344106e+01    7.468472e+02
  1.346385e+01    7.453539e+02
  1.348663e+01    7.439105e+02
  1.350941e+01    7.423249e+02
  1.353219e+01    7.406449e+02
  1.355498e+01    7.389585e+02
  1.357776e+01    7.372394e+02
  1.360054e+01    7.355975e+02
  1.362333e+01    7.340523e+02
  1.364611e+01    7.325263e+02
  1.366889e+01    7.310254e+02
  1.369167e+01    7.295237e+02
  1.371446e+01    7.280670e+02
  1.373724e+01    7.266559e+02
  1.376002e+01    7.253855e+02
  1.378281e+01    7.240295e+02
  1.380559e+01    7.227589e+02
  1.382837e+01    7.215215e+02
  1.385115e+01    7.203505e+02
  1.387394e+01    7.191740e+02
  1.389672e+01    7.179368e+02
  1.391950e+01    7.168533e+02
  1.394229e+01    7.157309e+02
  1.396507e+01    7.145390e+02
  1.398785e+01    7.133207e+02
  1.401063e+01    7.120723e+02
  1.403342e+01    7.109633e+02
  1.405620e+01    7.098792e+02
  1.407898e+01    7.087952e+02
  1.410176e+01    7.076985e+02
  1.412455e+01    7.066691e+02
  1.414733e+01    7.056420e+02
  1.417011e+01    7.047164e+02
  1.419290e+01    7.037250e+02
  1.421568e+01    7.027780e+02
  1.423846e+01    7.018158e+02
  1.426124e+01    7.007870e+02
  1.428403e+01    6.998561e+02
  1.430681e+01    6.989197e+02
  1.432959e+01    6.978226e+02
  1.435238e+01    6.968525e+02
  1.437516e+01    6.958920e+02
  1.439794e+01    6.950393e+02
  1.442072e+01    6.941946e+02
  1.444351e+01    6.933072e+02
  1.446629e+01    6.923758e+02
  1.448907e+01    6.914391e+02
  1.451186e+01    6.905867e+02
  1.453464e+01    6.897853e+02
  1.455742e+01    6.889681e+02
  1.458020e+01    6.881171e+02
  1.460299e+01    6.873160e+02
  1.462577e+01    6.865311e+02
  1.464855e+01    6.857744e+02
  1.467133e+01    6.848767e+02
  1.469412e+01    6.840303e+02
  1.471690e+01    6.832684e+02
  1.473968e+01    6.823356e+02
  1.476247e+01    6.814958e+02
  1.478525e+01    6.806963e+02
  1.480803e+01    6.798790e+02
  1.483081e+01    6.790857e+02
  1.485360e+01    6.782748e+02
  1.487638e+01    6.774935e+02
  1.489916e+01    6.767799e+02
  1.492195e+01    6.759800e+02
  1.494473e+01    6.751256e+02
  1.496751e+01    6.743632e+02
  1.499029e+01    6.735413e+02
  1.501308e+01    6.727811e+02
  1.503586e+01    6.722532e+02
  1.505864e+01    6.713170e+02
  1.508142e+01    6.705378e+02
  1.510421e+01    6.696252e+02
  1.512699e+01    6.687610e+02
  1.514977e+01    6.679304e+02
  1.517256e+01    6.670916e+02
  1.519534e+01    6.662811e+02
  1.521812e+01    6.654836e+02
  1.524090e+01    6.646425e+02
  1.526369e+01    6.637460e+02
  1.528647e+01    6.629568e+02
  1.530925e+01    6.621868e+02
  1.533204e+01    6.613278e+02
  1.535482e+01    6.604527e+02
  1.537760e+01    6.595300e+02
  1.540038e+01    6.588070e+02
  1.542317e+01    6.580292e+02
  1.544595e+01    6.570979e+02
  1.546873e+01    6.561672e+02
  1.549152e+01    6.552484e+02
  1.551430e+01    6.544088e+02
  1.553708e+01    6.535844e+02
  1.555986e+01    6.527409e+02
  1.558265e+01    6.519128e+02
  1.560543e+01    6.509553e+02
  1.562821e+01    6.501067e+02
  1.565099e+01    6.492372e+02
  1.567378e+01    6.484059e+02
  1.569656e+01    6.475477e+02
  1.571934e+01    6.466819e+02
  1.574213e+01    6.458201e+02
  1.576491e+01    6.449908e+02
  1.578769e+01    6.442241e+02
  1.581047e+01    6.433595e+02
  1.583326e+01    6.424640e+02
  1.585604e+01    6.416101e+02
  1.587882e+01    6.407235e+02
  1.590161e+01    6.399280e+02
  1.592439e+01    6.391050e+02
  1.594717e+01    6.382939e+02
  1.596995e+01    6.374773e+02
  1.599274e+01    6.366947e+02
  1.601552e+01    6.359570e+02
  1.603830e+01    6.352183e+02
  1.606109e+01    6.343574e+02
  1.608387e+01    6.336694e+02
  1.610665e+01    6.328242e+02
  1.612943e+01    6.321004e+02
  1.615222e+01    6.313598e+02
  1.617500e+01    6.305710e+02
  1.619778e+01    6.298414e+02
  1.622056e+01    6.290803e+02
  1.624335e+01    6.283386e+02
  1.626613e+01    6.276058e+02
  1.628891e+01    6.268619e+02
  1.631170e+01    6.261448e+02
  1.633448e+01    6.254217e+02
  1.635726e+01    6.246995e+02
  1.638004e+01    6.239838e+02
  1.640283e+01    6.231934e+02
  1.642561e+01    6.224520e+02
  1.644839e+01    6.217719e+02
  1.647118e+01    6.210469e+02
  1.649396e+01    6.202659e+02
  1.651674e+01    6.195711e+02
  1.653952e+01    6.188204e+02
  1.656231e+01    6.180233e+02
  1.658509e+01    6.171591e+02
  1.660787e+01    6.164141e+02
  1.663065e+01    6.156464e+02
  1.665344e+01    6.148264e+02
  1.667622e+01    6.140576e+02
  1.669900e+01    6.132712e+02
  1.672179e+01    6.124373e+02
  1.674457e+01    6.115579e+02
  1.676735e+01    6.107360e+02
  1.679013e+01    6.098467e+02
  1.681292e+01    6.089286e+02
  1.683570e+01    6.080648e+02
  1.685848e+01    6.071954e+02
  1.688127e+01    6.062997e+02
  1.690405e+01    6.053423e+02
  1.692683e+01    6.044653e+02
  1.694961e+01    6.034006e+02
  1.697240e+01    6.024240e+02
  1.699518e+01    6.015445e+02
  1.701796e+01    6.006225e+02
  1.704075e+01    5.996078e+02
  1.706353e+01    5.985270e+02
  1.708631e+01    5.974937e+02
  1.710909e+01    5.964250e+02
  1.713188e+01    5.953314e+02
  1.715466e+01    5.943543e+02
  1.717744e+01    5.933290e+02
  1.720022e+01    5.921977e+02
  1.722301e+01    5.911647e+02
  1.724579e+01    5.900623e+02
  1.726857e+01    5.890024e+02
  1.729136e+01    5.879916e+02
  1.731414e+01    5.869802e+02
  1.733692e+01    5.858796e+02
  1.735970e+01    5.847892e+02
  1.738249e+01    5.836815e+02
  1.740527e+01    5.826583e+02
  1.742805e+01    5.816152e+02
  1.745084e+01    5.804821e+02
  1.747362e+01    5.794148e+02
  1.749640e+01    5.783675e+02
  1.751918e+01    5.772890e+02
  1.754197e+01    5.760904e+02
  1.756475e+01    5.750056e+02
  1.758753e+01    5.740446e+02
  1.761032e+01    5.730029e+02
  1.763310e+01    5.719893e+02
  1.765588e+01    5.710224e+02
  1.767866e+01    5.700485e+02
  1.770145e+01    5.690624e+02
  1.772423e+01    5.680827e+02
  1.774701e+01    5.670924e+02
  1.776979e+01    5.661110e+02
  1.779258e+01    5.651724e+02
  1.781536e+01    5.642595e+02
  1.783814e+01    5.632798e+02
  1.786093e+01    5.623914e+02
  1.788371e+01    5.614459e+02
  1.790649e+01    5.605504e+02
  1.792927e+01    5.596088e+02
  1.795206e+01    5.587406e+02
  1.797484e+01    5.578140e+02
  1.799762e+01    5.569130e+02
  1.802041e+01    5.559921e+02
  1.804319e+01    5.551696e+02
  1.806597e+01    5.543621e+02
  1.808875e+01    5.535305e+02
  1.811154e+01    5.525879e+02
  1.813432e+01    5.517089e+02
  1.815710e+01    5.509086e+02
  1.817989e+01    5.501231e+02
  1.820267e+01    5.492717e+02
  1.822545e+01    5.484594e+02
  1.824823e+01    5.476415e+02
  1.827102e+01    5.468258e+02
  1.829380e+01    5.461062e+02
  1.831658e+01    5.453313e+02
  1.833936e+01    5.445721e+02
  1.836215e+01    5.437310e+02
  1.838493e+01    5.429122e+02
  1.840771e+01    5.421277e+02
  1.843050e+01    5.414576e+02
  1.845328e+01    5.407661e+02
  1.847606e+01    5.400143e+02
  1.849884e+01    5.392271e+02
  1.852163e+01    5.384811e+02
  1.854441e+01    5.376951e+02
  1.856719e+01    5.369317e+02
  1.858998e+01    5.362573e+02
  1.861276e+01    5.355944e+02
  1.863554e+01    5.349235e+02
  1.865832e+01    5.341870e+02
  1.868111e+01    5.334170e+02
  1.870389e+01    5.327629e+02
  1.872667e+01    5.321517e+02
  1.874945e+01    5.314639e+02
  1.877224e+01    5.307772e+02
  1.879502e+01    5.301074e+02
  1.881780e+01    5.293917e+02
  1.884059e+01    5.287137e+02
  1.886337e+01    5.280903e+02
  1.888615e+01    5.274389e+02
  1.890893e+01    5.267956e+02
  1.893172e+01    5.260936e+02
  1.895450e+01    5.254156e+02
  1.897728e+01    5.246812e+02
  1.900007e+01    5.240240e+02
  1.902285e+01    5.233678e+02
  1.904563e+01    5.226454e+02
  1.906841e+01    5.219642e+02
  1.909120e+01    5.212745e+02
  1.911398e+01    5.206302e+02
  1.913676e+01    5.199638e+02
  1.915955e+01    5.192773e+02
  1.918233e+01    5.186267e+02
  1.920511e+01    5.179709e+02
  1.922789e+01    5.172741e+02
  1.925068e+01    5.165676e+02
  1.927346e+01    5.158967e+02
  1.929624e+01    5.152051e+02
  1.931902e+01    5.144914e+02
  1.934181e+01    5.138153e+02
  1.936459e+01    5.130788e+02
  1.938737e+01    5.123425e+02
  1.941016e+01    5.117227e+02
  1.943294e+01    5.110558e+02
  1.945572e+01    5.103585e+02
  1.947850e+01    5.096978e+02
  1.950129e+01    5.089355e+02
  1.952407e+01    5.082499e+02
  1.954685e+01    5.075723e+02
  1.956964e+01    5.069191e+02
  1.959242e+01    5.062659e+02
  1.961520e+01    5.056013e+02
  1.963798e+01    5.049200e+02
  1.966077e+01    5.042272e+02
  1.968355e+01    5.035396e+02
  1.970633e+01    5.027876e+02
  1.972912e+01    5.020547e+02
  1.975190e+01    5.013012e+02
  1.977468e+01    5.005511e+02
  1.979746e+01    4.998214e+02
  1.982025e+01    4.991403e+02
  1.984303e+01    4.983815e+02
  1.986581e+01    4.977017e+02
  1.988859e+01    4.969960e+02
  1.991138e+01    4.962271e+02
  1.993416e+01    4.955007e+02
  1.995694e+01    4.947623e+02
  1.997973e+01    4.940239e+02
  2.000251e+01    4.932617e+02
  2.002529e+01    4.924553e+02
  2.004807e+01    4.917353e+02
  2.007086e+01    4.909765e+02
  2.009364e+01    4.901973e+02
  2.011642e+01    4.893882e+02
  2.013921e+01    4.885740e+02
  2.016199e+01    4.877770e+02
  2.018477e+01    4.869655e+02
  2.020755e+01    4.861568e+02
  2.023034e+01    4.854042e+02
  2.025312e+01    4.846073e+02
  2.027590e+01    4.838469e+02
  2.029868e+01    4.830463e+02
  2.032147e+01    4.821841e+02
  2.034425e+01    4.813564e+02
  2.036703e+01    4.805173e+02
  2.038982e+01    4.797716e+02
  2.041260e+01    4.789249e+02
  2.043538e+01    4.782092e+02
  2.045816e+01    4.774382e+02
  2.048095e+01    4.766902e+02
  2.050373e+01    4.759509e+02
  2.052651e+01    4.752391e+02
  2.054930e+01    4.744755e+02
  2.057208e+01    4.737176e+02
  2.059486e+01    4.729814e+02
  2.061764e+01    4.722137e+02
  2.064043e+01    4.714598e+02
  2.066321e+01    4.706699e+02
  2.068599e+01    4.699274e+02
  2.070878e+01    4.692310e+02
  2.073156e+01    4.684748e+02
  2.075434e+01    4.676626e+02
  2.077712e+01    4.669125e+02
  2.079991e+01    4.660999e+02
  2.082269e+01    4.653406e+02
  2.084547e+01    4.645935e+02
  2.086825e+01    4.638015e+02
  2.089104e+01    4.630765e+02
  2.091382e+01    4.623164e+02
  2.093660e+01    4.615845e+02
  2.095939e+01    4.608568e+02
  2.098217e+01    4.601031e+02
  2.100495e+01    4.593623e+02
  2.102773e+01    4.586279e+02
  2.105052e+01    4.577584e+02
  2.107330e+01    4.569377e+02
  2.109608e+01    4.561394e+02
  2.111887e+01    4.554113e+02
  2.114165e+01    4.546324e+02
  2.116443e+01    4.538526e+02
  2.118721e+01    4.531376e+02
  2.121000e+01    4.524416e+02
  2.123278e+01    4.516551e+02
  2.125556e+01    4.509106e+02
  2.127835e+01    4.501550e+02
  2.130113e+01    4.493884e+02
  2.132391e+01    4.486426e+02
  2.134669e+01    4.478564e+02
  2.136948e+01    4.470989e+02
  2.139226e+01    4.463770e+02
  2.141504e+01    4.457608e+02
  2.143782e+01    4.452698e+02
  2.146061e+01    4.443499e+02
  2.148339e+01    4.435203e+02
  2.150617e+01    4.427274e+02
  2.152896e+01    4.419402e+02
  2.155174e+01    4.411915e+02
  2.157452e+01    4.404217e+02
  2.159730e+01    4.396674e+02
  2.162009e+01    4.389059e+02
  2.164287e+01    4.381312e+02
  2.166565e+01    4.373383e+02
  2.168844e+01    4.365619e+02
  2.171122e+01    4.358250e+02
  2.173400e+01    4.350535e+02
  2.175678e+01    4.343264e+02
  2.177957e+01    4.335871e+02
  2.180235e+01    4.327681e+02
  2.182513e+01    4.320517e+02
  2.184791e+01    4.313603e+02
  2.187070e+01    4.305910e+02
  2.189348e+01    4.298470e+02
  2.191626e+01    4.291329e+02
  2.193905e+01    4.283613e+02
  2.196183e+01    4.276681e+02
  2.198461e+01    4.269415e+02
  2.200739e+01    4.262240e+02
  2.203018e+01    4.254931e+02
  2.205296e+01    4.247182e+02
  2.207574e+01    4.240092e+02
  2.209853e+01    4.233124e+02
  2.212131e+01    4.225986e+02
  2.214409e+01    4.218725e+02
  2.216687e+01    4.211348e+02
  2.218966e+01    4.204615e+02
  2.221244e+01    4.197258e+02
  2.223522e+01    4.190629e+02
  2.225801e+01    4.183290e+02
  2.228079e+01    4.175708e+02
  2.230357e+01    4.168442e+02
  2.232635e+01    4.161504e+02
  2.234914e+01    4.154392e+02
  2.237192e+01    4.147579e+02
  2.239470e+01    4.140075e+02
  2.241748e+01    4.132871e+02
  2.244027e+01    4.125827e+02
  2.246305e+01    4.118832e+02
  2.248583e+01    4.112368e+02
  2.250862e+01    4.105510e+02
  2.253140e+01    4.098426e+02
  2.255418e+01    4.091874e+02
  2.257696e+01    4.084563e+02
  2.259975e+01    4.077365e+02
  2.262253e+01    4.070525e+02
  2.264531e+01    4.064099e+02
  2.266810e+01    4.057823e+02
  2.269088e+01    4.051051e+02
  2.271366e+01    4.044366e+02
  2.273644e+01    4.037957e+02
  2.275923e+01    4.031165e+02
  2.278201e+01    4.024337e+02
  2.280479e+01    4.017500e+02
  2.282758e+01    4.010897e+02
  2.285036e+01    4.004351e+02
  2.287314e+01    3.997829e+02
  2.289592e+01    3.991464e+02
  2.291871e+01    3.984404e+02
  2.294149e+01    3.977679e+02
  2.296427e+01    3.971237e+02
  2.298705e+01    3.964187e+02
  2.300984e+01    3.957768e+02
  2.303262e+01    3.951266e+02
  2.305540e+01    3.944770e+02
  2.307819e+01    3.938191e+02
  2.310097e+01    3.931801e+02
  2.312375e+01    3.924658e+02
  2.314653e+01    3.917582e+02
  2.316932e+01    3.910775e+02
  2.319210e+01    3.903994e+02
  2.321488e+01    3.897694e+02
  2.323767e+01    3.890883e+02
  2.326045e+01    3.884503e+02
  2.328323e+01    3.877844e+02
  2.330601e+01    3.871222e+02
  2.332880e+01    3.864652e+02
  2.335158e+01    3.858073e+02
  2.337436e+01    3.851879e+02
  2.339714e+01    3.845428e+02
  2.341993e+01    3.838596e+02
  2.344271e+01    3.832281e+02
  2.346549e+01    3.825226e+02
  2.348828e+01    3.818464e+02
  2.351106e+01    3.811669e+02
  2.353384e+01    3.805395e+02
  2.355662e+01    3.799070e+02
  2.357941e+01    3.792543e+02
  2.360219e+01    3.785941e+02
  2.362497e+01    3.779302e+02
  2.364776e+01    3.773109e+02
  2.367054e+01    3.766285e+02
  2.369332e+01    3.762238e+02
  2.371610e+01    3.756718e+02
  2.373889e+01    3.748094e+02
  2.376167e+01    3.740182e+02
  2.378445e+01    3.733391e+02
  2.380724e+01    3.726158e+02
  2.383002e+01    3.719279e+02
  2.385280e+01    3.712632e+02
  2.387558e+01    3.705901e+02
  2.389837e+01    3.699209e+02
  2.392115e+01    3.692248e+02
  2.394393e+01    3.684994e+02
  2.396671e+01    3.678010e+02
  2.398950e+01    3.671050e+02
  2.401228e+01    3.664680e+02
  2.403506e+01    3.658132e+02
  2.405785e+01    3.651505e+02
  2.408063e+01    3.644754e+02
  2.410341e+01    3.638529e+02
  2.412619e+01    3.631438e+02
  2.414898e+01    3.624977e+02
  2.417176e+01    3.618560e+02
  2.419454e+01    3.611207e+02
  2.421733e+01    3.604818e+02
  2.424011e+01    3.597990e+02
  2.426289e+01    3.590972e+02
  2.428567e+01    3.584384e+02
  2.430846e+01    3.577938e+02
  2.433124e+01    3.571269e+02
  2.435402e+01    3.564674e+02
  2.437681e+01    3.557480e+02
  2.439959e+01    3.550424e+02
  2.442237e+01    3.543497e+02
  2.444515e+01    3.536713e+02
  2.446794e+01    3.529665e+02
  2.449072e+01    3.522609e+02
  2.451350e+01    3.516122e+02
  2.453628e+01    3.509548e+02
  2.455907e+01    3.502857e+02
  2.458185e+01    3.496286e+02
  2.460463e+01    3.489204e+02
  2.462742e+01    3.481991e+02
  2.465020e+01    3.475349e+02
  2.467298e+01    3.468531e+02
  2.469576e+01    3.461792e+02
  2.471855e+01    3.454681e+02
  2.474133e+01    3.448065e+02
  2.476411e+01    3.441615e+02
  2.478690e+01    3.435174e+02
  2.480968e+01    3.428074e+02
  2.483246e+01    3.421562e+02
  2.485524e+01    3.414082e+02
  2.487803e+01    3.407175e+02
  2.490081e+01    3.400389e+02
  2.492359e+01    3.394109e+02
  2.494637e+01    3.387124e+02
  2.496916e+01    3.380164e+02
  2.499194e+01    3.373289e+02
  2.501472e+01    3.366329e+02
  2.503751e+01    3.359811e+02
  2.506029e+01    3.353119e+02
  2.508307e+01    3.346385e+02
  2.510585e+01    3.339504e+02
  2.512864e+01    3.332689e+02
  2.515142e+01    3.325604e+02
  2.517420e+01    3.318544e+02
  2.519699e+01    3.311773e+02
  2.521977e+01    3.305023e+02
  2.524255e+01    3.298542e+02
  2.526533e+01    3.291868e+02
  2.528812e+01    3.285408e+02
  2.531090e+01    3.278507e+02
  2.533368e+01    3.271839e+02
  2.535647e+01    3.265782e+02
  2.537925e+01    3.259136e+02
  2.540203e+01    3.253264e+02
  2.542481e+01    3.246932e+02
  2.544760e+01    3.240380e+02
  2.547038e+01    3.233743e+02
  2.549316e+01    3.227007e+02
  2.551594e+01    3.220323e+02
  2.553873e+01    3.213564e+02
  2.556151e+01    3.207460e+02
  2.558429e+01    3.201005e+02
  2.560708e+01    3.194746e+02
  2.562986e+01    3.187854e+02
  2.565264e+01    3.181880e+02
  2.567542e+01    3.175587e+02
  2.569821e+01    3.169167e+02
  2.572099e+01    3.162627e+02
  2.574377e+01    3.156310e+02
  2.576656e+01    3.150278e+02
  2.578934e+01    3.143813e+02
  2.581212e+01    3.136970e+02
  2.583490e+01    3.130790e+02
  2.585769e+01    3.124300e+02
  2.588047e+01    3.118048e+02
  2.590325e+01    3.111953e+02
  2.592604e+01    3.105394e+02
  2.594882e+01    3.098963e+02
  2.597160e+01    3.093248e+02
  2.599438e+01    3.086807e+02
  2.601717e+01    3.080236e+02
  2.603995e+01    3.074142e+02
  2.606273e+01    3.067623e+02
  2.608551e+01    3.061642e+02
  2.610830e+01    3.055397e+02
  2.613108e+01    3.049012e+02
  2.615386e+01    3.042438e+02
  2.617665e+01    3.036119e+02
  2.619943e+01    3.029666e+02
  2.622221e+01    3.023474e+02
  2.624499e+01    3.017655e+02
  2.626778e+01    3.011284e+02
  2.629056e+01    3.005521e+02
  2.631334e+01    2.999664e+02
  2.633613e+01    2.992968e+02
  2.635891e+01    2.986548e+02
  2.638169e+01    2.980389e+02
  2.640447e+01    2.973900e+02
  2.642726e+01    2.967349e+02
  2.645004e+01    2.961476e+02
  2.647282e+01    2.955067e+02
  2.649560e+01    2.948759e+02
  2.651839e+01    2.942339e+02
  2.654117e+01    2.936622e+02
  2.656395e+01    2.930132e+02
  2.658674e+01    2.924218e+02
  2.660952e+01    2.917566e+02
  2.663230e+01    2.911348e+02
  2.665508e+01    2.905255e+02
  2.667787e+01    2.898871e+02
  2.670065e+01    2.892525e+02
  2.672343e+01    2.886626e+02
  2.674622e+01    2.880905e+02
  2.676900e+01    2.874557e+02
  2.679178e+01    2.868245e+02
  2.681456e+01    2.861877e+02
  2.683735e+01    2.855889e+02
  2.686013e+01    2.849845e+02
  2.688291e+01    2.843578e+02
  2.690570e+01    2.837425e+02
  2.692848e+01    2.831200e+02
  2.695126e+01    2.824708e+02
  2.697404e+01    2.818333e+02
  2.699683e+01    2.812191e+02
  2.701961e+01    2.805777e+02
  2.704239e+01    2.799529e+02
  2.706517e+01    2.793357e+02
  2.708796e+01    2.787029e+02
  2.711074e+01    2.780261e+02
  2.713352e+01    2.774031e+02
  2.715631e+01    2.768061e+02
  2.717909e+01    2.762049e+02
  2.720187e+01    2.758562e+02
  2.722465e+01    2.761140e+02
  2.724744e+01    2.760137e+02
  2.727022e+01    2.757797e+02
  2.729300e+01    2.754627e+02
  2.731579e+01    2.750821e+02
  2.733857e+01    2.746887e+02
  2.736135e+01    2.742724e+02
  2.738413e+01    2.738244e+02
  2.740692e+01    2.733319e+02
  2.742970e+01    2.724970e+02
  2.745248e+01    2.717050e+02
  2.747527e+01    2.709717e+02
  2.749805e+01    2.702904e+02
  2.752083e+01    2.695767e+02
  2.754361e+01    2.689027e+02
  2.756640e+01    2.682268e+02
  2.758918e+01    2.674437e+02
  2.761196e+01    2.660188e+02
  2.763474e+01    2.648331e+02
  2.765753e+01    2.637394e+02
  2.768031e+01    2.627125e+02
  2.770309e+01    2.617599e+02
  2.772588e+01    2.608051e+02
  2.774866e+01    2.598317e+02
  2.777144e+01    2.589023e+02
  2.779422e+01    2.585764e+02
  2.781701e+01    2.587168e+02
  2.783979e+01    2.584601e+02
  2.786257e+01    2.580736e+02
  2.788536e+01    2.576265e+02
  2.790814e+01    2.571759e+02
  2.793092e+01    2.566909e+02
  2.795370e+01    2.561664e+02
  2.797649e+01    2.556476e+02
  2.799927e+01    2.551238e+02
  2.802205e+01    2.545833e+02
  2.804483e+01    2.540763e+02
  2.806762e+01    2.535540e+02
  2.809040e+01    2.529906e+02
  2.811318e+01    2.524539e+02
  2.813597e+01    2.519199e+02
  2.815875e+01    2.513600e+02
  2.818153e+01    2.508006e+02
  2.820431e+01    2.501835e+02
  2.822710e+01    2.496252e+02
  2.824988e+01    2.490827e+02
  2.827266e+01    2.484964e+02
  2.829545e+01    2.479470e+02
  2.831823e+01    2.473897e+02
  2.834101e+01    2.468293e+02
  2.836379e+01    2.462572e+02
  2.838658e+01    2.456778e+02
  2.840936e+01    2.451295e+02
  2.843214e+01    2.445523e+02
  2.845493e+01    2.440102e+02
  2.847771e+01    2.434303e+02
  2.850049e+01    2.428067e+02
  2.852327e+01    2.422646e+02
  2.854606e+01    2.416991e+02
  2.856884e+01    2.411613e+02
  2.859162e+01    2.405816e+02
  2.861440e+01    2.399905e+02
  2.863719e+01    2.394400e+02
  2.865997e+01    2.388792e+02
  2.868275e+01    2.383256e+02
  2.870554e+01    2.377218e+02
  2.872832e+01    2.371924e+02
  2.875110e+01    2.366305e+02
  2.877388e+01    2.360307e+02
  2.879667e+01    2.354296e+02
  2.881945e+01    2.348642e+02
  2.884223e+01    2.343007e+02
  2.886502e+01    2.337277e+02
  2.888780e+01    2.331982e+02
  2.891058e+01    2.326444e+02
  2.893336e+01    2.320797e+02
  2.895615e+01    2.315230e+02
  2.897893e+01    2.309906e+02
  2.900171e+01    2.304201e+02
  2.902450e+01    2.298212e+02
  2.904728e+01    2.292873e+02
  2.907006e+01    2.287367e+02
  2.909284e+01    2.281662e+02
  2.911563e+01    2.275931e+02
  2.913841e+01    2.270854e+02
  2.916119e+01    2.265337e+02
  2.918397e+01    2.258721e+02
  2.920676e+01    2.253792e+02
  2.922954e+01    2.248200e+02
  2.925232e+01    2.242615e+02
  2.927511e+01    2.236971e+02
  2.929789e+01    2.231620e+02
  2.932067e+01    2.226272e+02
  2.934345e+01    2.220474e+02
  2.936624e+01    2.214669e+02
  2.938902e+01    2.209367e+02
  2.941180e+01    2.203279e+02
  2.943459e+01    2.197623e+02
  2.945737e+01    2.192855e+02
  2.948015e+01    2.186937e+02
  2.950293e+01    2.181964e+02
  2.952572e+01    2.176377e+02
  2.954850e+01    2.170977e+02
  2.957128e+01    2.165587e+02
  2.959407e+01    2.160055e+02
  2.961685e+01    2.154696e+02
  2.963963e+01    2.149220e+02
  2.966241e+01    2.143843e+02
  2.968520e+01    2.138215e+02
  2.970798e+01    2.133028e+02
  2.973076e+01    2.127513e+02
  2.975354e+01    2.122056e+02
  2.977633e+01    2.115894e+02
  2.979911e+01    2.110914e+02
  2.982189e+01    2.105823e+02
  2.984468e+01    2.100762e+02
  2.986746e+01    2.095548e+02
  2.989024e+01    2.089781e+02
  2.991302e+01    2.084312e+02
  2.993581e+01    2.079067e+02
  2.995859e+01    2.073429e+02
  2.998137e+01    2.067946e+02
  3.000416e+01    2.062665e+02
  3.002694e+01    2.057210e+02
  3.004972e+01    2.052701e+02
  3.007250e+01    2.046937e+02
  3.009529e+01    2.041538e+02
  3.011807e+01    2.036621e+02
  3.014085e+01    2.030731e+02
  3.016363e+01    2.025500e+02
  3.018642e+01    2.020273e+02
  3.020920e+01    2.015309e+02
  3.023198e+01    2.010294e+02
  3.025477e+01    2.004653e+02
  3.027755e+01    1.998793e+02
  3.030033e+01    1.994940e+02
  3.032311e+01    1.989749e+02
  3.034590e+01    1.983166e+02
  3.036868e+01    1.978311e+02
  3.039146e+01    1.973688e+02
  3.041425e+01    1.968374e+02
  3.043703e+01    1.964368e+02
  3.045981e+01    1.958382e+02
  3.048259e+01    1.952139e+02
  3.050538e+01    1.948367e+02
  3.052816e+01    1.942412e+02
  3.055094e+01    1.937322e+02
  3.057373e+01    1.932612e+02
  3.059651e+01    1.927543e+02
  3.061929e+01    1.921880e+02
  3.064207e+01    1.916523e+02
  3.066486e+01    1.911777e+02
  3.068764e+01    1.906099e+02
  3.071042e+01    1.901514e+02
  3.073320e+01    1.896414e+02
  3.075599e+01    1.891085e+02
  3.077877e+01    1.886327e+02
  3.080155e+01    1.880516e+02
  3.082434e+01    1.875677e+02
  3.084712e+01    1.871467e+02
  3.086990e+01    1.865611e+02
  3.089268e+01    1.860292e+02
  3.091547e+01    1.854784e+02
  3.093825e+01    1.850260e+02
  3.096103e+01    1.844342e+02
  3.098382e+01    1.840908e+02
  3.100660e+01    1.835395e+02
  3.102938e+01    1.830350e+02
  3.105216e+01    1.825069e+02
  3.107495e+01    1.820847e+02
  3.109773e+01    1.815115e+02
  3.112051e+01    1.810627e+02
  3.114330e+01    1.805280e+02
  3.116608e+01    1.799834e+02
  3.118886e+01    1.795670e+02
  3.121164e+01    1.791149e+02
  3.123443e+01    1.785876e+02
  3.125721e+01    1.781557e+02
  3.127999e+01    1.775327e+02
  3.130277e+01    1.770048e+02
  3.132556e+01    1.765654e+02
  3.134834e+01    1.762488e+02
  3.137112e+01    1.757059e+02
  3.139391e+01    1.752025e+02
  3.141669e+01    1.747855e+02
  3.143947e+01    1.741931e+02
  3.146225e+01    1.736522e+02
  3.148504e+01    1.732027e+02
  3.150782e+01    1.726478e+02
  3.153060e+01    1.723592e+02
  3.155339e+01    1.719739e+02
  3.157617e+01    1.714301e+02
  3.159895e+01    1.709019e+02
  3.162173e+01    1.704717e+02
  3.164452e+01    1.700381e+02
  3.166730e+01    1.694984e+02
  3.169008e+01    1.689454e+02
  3.171286e+01    1.684214e+02
  3.173565e+01    1.680163e+02
  3.175843e+01    1.676182e+02
  3.178121e+01    1.670510e+02
  3.180400e+01    1.664742e+02
  3.182678e+01    1.659249e+02
  3.184956e+01    1.654274e+02
  3.187234e+01    1.649041e+02
  3.189513e+01    1.645722e+02
  3.191791e+01    1.641180e+02
  3.194069e+01    1.636527e+02
  3.196348e+01    1.630602e+02
  3.198626e+01    1.625838e+02
  3.200904e+01    1.621976e+02
  3.203182e+01    1.615798e+02
  3.205461e+01    1.610653e+02
  3.207739e+01    1.606136e+02
  3.210017e+01    1.600954e+02
  3.212296e+01    1.597617e+02
  3.214574e+01    1.592082e+02
  3.216852e+01    1.586174e+02
  3.219130e+01    1.580950e+02
  3.221409e+01    1.576319e+02
  3.223687e+01    1.572022e+02
  3.225965e+01    1.566729e+02
  3.228243e+01    1.561909e+02
  3.230522e+01    1.557521e+02
  3.232800e+01    1.551555e+02
  3.235078e+01    1.546404e+02
  3.237357e+01    1.541426e+02
  3.239635e+01    1.536627e+02
  3.241913e+01    1.530880e+02
  3.244191e+01    1.525419e+02
  3.246470e+01    1.520154e+02
  3.248748e+01    1.514419e+02
  3.251026e+01    1.509011e+02
  3.253305e+01    1.504076e+02
  3.255583e+01    1.499399e+02
  3.257861e+01    1.494605e+02
  3.260139e+01    1.489944e+02
  3.262418e+01    1.483696e+02
  3.264696e+01    1.478804e+02
  3.266974e+01    1.474687e+02
  3.269253e+01    1.470113e+02
  3.271531e+01    1.464241e+02
  3.273809e+01    1.458973e+02
  3.276087e+01    1.453231e+02
  3.278366e+01    1.449395e+02
  3.280644e+01    1.444057e+02
  3.282922e+01    1.437124e+02
  3.285200e+01    1.431948e+02
  3.287479e+01    1.427143e+02
  3.289757e+01    1.420900e+02
  3.292035e+01    1.415773e+02
  3.294314e+01    1.409941e+02
  3.296592e+01    1.404461e+02
  3.298870e+01    1.399886e+02
  3.301148e+01    1.394680e+02
  3.303427e+01    1.389999e+02
  3.305705e+01    1.382327e+02
  3.307983e+01    1.375572e+02
  3.310262e+01    1.370793e+02
  3.312540e+01    1.365090e+02
  3.314818e+01    1.360313e+02
  3.317096e+01    1.355027e+02
  3.319375e+01    1.346758e+02
  3.321653e+01    1.342258e+02
  3.323931e+01    1.339528e+02
  3.326209e+01    1.330377e+02
  3.328488e+01    1.324781e+02
  3.330766e+01    1.315934e+02
  3.333044e+01    1.307717e+02
  3.335323e+01    1.303713e+02
  3.337601e+01    1.299382e+02
  3.339879e+01    1.301171e+02
  3.342157e+01    1.296742e+02
  3.344436e+01    1.286289e+02
  3.346714e+01    1.280974e+02
  3.348992e+01    1.278599e+02
  3.351271e+01    1.269829e+02
  3.353549e+01    0.000000e+00
  3.355827e+01    0.000000e+00
  3.358105e+01    0.000000e+00
  3.360384e+01    0.000000e+00
  3.362662e+01    0.000000e+00
  3.364940e+01    0.000000e+00
  3.367219e+01    0.000000e+00
  3.369497e+01    0.000000e+00
  3.371775e+01    0.000000e+00
