# == pyFAI calibration ==
# Distance Sample to Detector: 0.21311058206280517 m
# PONI: 2.037e-01, 1.993e-01 m
# Rotations: -0.005459 0.000134 0.000000 rad
# 
# == Fit2d calibration ==
# Distance Sample-beamCenter: 213.114 mm
# Center: x=1002.134, y=1018.730 pix
# Tilt: 0.313 deg  TiltPlanRot: 1.411 deg
# 
# Detector Perkin detector	 PixelSize= 2.000e-04, 2.000e-04 m
#    Detector has a mask: False 
#    Detector has a dark current: False 
#    detector has a flat field: False 
# 
# Wavelength: 1.675e-11 m
# Mask applied: provided
# Dark current applied: False
# Flat field applied: False
# Polarization factor: None
# Normalization factor: 1.0
# --> data/chi_bkgsub_false/C_Tatania3-0.0-average.chi
#        q_A^-1             I 
  2.199784e-02    1.262280e+02
  4.478064e-02    1.273907e+02
  6.756343e-02    1.273228e+02
  9.034623e-02    1.281464e+02
  1.131290e-01    1.302186e+02
  1.359118e-01    1.319534e+02
  1.586946e-01    1.352187e+02
  1.814774e-01    1.398396e+02
  2.042602e-01    1.452620e+02
  2.270430e-01    1.542818e+02
  2.498258e-01    1.751814e+02
  2.726086e-01    2.112757e+02
  2.953914e-01    3.982368e+02
  3.181742e-01    6.239303e+02
  3.409570e-01    9.430488e+02
  3.637398e-01    1.362086e+03
  3.865226e-01    1.192938e+03
  4.093054e-01    8.583994e+02
  4.320881e-01    6.862304e+02
  4.548709e-01    6.240396e+02
  4.776537e-01    6.729079e+02
  5.004365e-01    7.204636e+02
  5.232193e-01    7.576462e+02
  5.460021e-01    8.057656e+02
  5.687849e-01    8.708873e+02
  5.915677e-01    9.460601e+02
  6.143505e-01    1.034983e+03
  6.371333e-01    1.157342e+03
  6.599161e-01    1.277772e+03
  6.826989e-01    1.398952e+03
  7.054817e-01    1.505797e+03
  7.282645e-01    1.587090e+03
  7.510473e-01    1.649454e+03
  7.738301e-01    1.694799e+03
  7.966129e-01    1.737055e+03
  8.193956e-01    1.781327e+03
  8.421784e-01    1.825330e+03
  8.649612e-01    1.872920e+03
  8.877440e-01    1.924725e+03
  9.105268e-01    1.977266e+03
  9.333096e-01    2.034806e+03
  9.560924e-01    2.096555e+03
  9.788752e-01    2.160562e+03
  1.001658e+00    2.230726e+03
  1.024441e+00    2.304638e+03
  1.047224e+00    2.383007e+03
  1.070006e+00    2.468863e+03
  1.092789e+00    2.558966e+03
  1.115572e+00    2.653778e+03
  1.138355e+00    2.758649e+03
  1.161138e+00    2.867097e+03
  1.183920e+00    2.981545e+03
  1.206703e+00    3.105410e+03
  1.229486e+00    3.230398e+03
  1.252269e+00    3.365989e+03
  1.275052e+00    3.510705e+03
  1.297834e+00    3.648193e+03
  1.320617e+00    3.796577e+03
  1.343400e+00    3.951793e+03
  1.366183e+00    4.104974e+03
  1.388966e+00    4.264312e+03
  1.411748e+00    4.422354e+03
  1.434531e+00    4.578854e+03
  1.457314e+00    4.734169e+03
  1.480097e+00    4.875699e+03
  1.502879e+00    5.012234e+03
  1.525662e+00    5.140791e+03
  1.548445e+00    5.252675e+03
  1.571228e+00    5.351009e+03
  1.594011e+00    5.436316e+03
  1.616793e+00    5.510169e+03
  1.639576e+00    5.562094e+03
  1.662359e+00    5.595758e+03
  1.685142e+00    5.620741e+03
  1.707925e+00    5.624721e+03
  1.730707e+00    5.613825e+03
  1.753490e+00    5.596158e+03
  1.776273e+00    5.569519e+03
  1.799056e+00    5.534479e+03
  1.821839e+00    5.487216e+03
  1.844621e+00    5.438986e+03
  1.867404e+00    5.392157e+03
  1.890187e+00    5.330656e+03
  1.912970e+00    5.270019e+03
  1.935753e+00    5.213711e+03
  1.958535e+00    5.157610e+03
  1.981318e+00    5.100418e+03
  2.004101e+00    5.043264e+03
  2.026884e+00    4.989449e+03
  2.049667e+00    4.932468e+03
  2.072449e+00    4.868547e+03
  2.095232e+00    4.810599e+03
  2.118015e+00    4.752717e+03
  2.140798e+00    4.695571e+03
  2.163581e+00    4.627277e+03
  2.186363e+00    4.541670e+03
  2.209146e+00    4.449462e+03
  2.231929e+00    4.349152e+03
  2.254712e+00    4.250158e+03
  2.277494e+00    4.155352e+03
  2.300277e+00    4.057015e+03
  2.323060e+00    3.955048e+03
  2.345843e+00    3.855855e+03
  2.368626e+00    3.754975e+03
  2.391408e+00    3.656692e+03
  2.414191e+00    3.557955e+03
  2.436974e+00    3.464260e+03
  2.459757e+00    3.380252e+03
  2.482540e+00    3.295439e+03
  2.505322e+00    3.203970e+03
  2.528105e+00    3.110242e+03
  2.550888e+00    3.021417e+03
  2.573671e+00    2.940886e+03
  2.596454e+00    2.870855e+03
  2.619236e+00    2.812248e+03
  2.642019e+00    2.761356e+03
  2.664802e+00    2.715776e+03
  2.687585e+00    2.680065e+03
  2.710368e+00    2.652794e+03
  2.733150e+00    2.636715e+03
  2.755933e+00    2.626379e+03
  2.778716e+00    2.623438e+03
  2.801499e+00    2.628648e+03
  2.824282e+00    2.633510e+03
  2.847064e+00    2.639035e+03
  2.869847e+00    2.649308e+03
  2.892630e+00    2.658951e+03
  2.915413e+00    2.664906e+03
  2.938196e+00    2.668121e+03
  2.960978e+00    2.668078e+03
  2.983761e+00    2.666462e+03
  3.006544e+00    2.663342e+03
  3.029327e+00    2.658675e+03
  3.052110e+00    2.651309e+03
  3.074892e+00    2.639102e+03
  3.097675e+00    2.624296e+03
  3.120458e+00    2.610133e+03
  3.143241e+00    2.596788e+03
  3.166023e+00    2.583563e+03
  3.188806e+00    2.569381e+03
  3.211589e+00    2.553517e+03
  3.234372e+00    2.536944e+03
  3.257155e+00    2.520921e+03
  3.279937e+00    2.506753e+03
  3.302720e+00    2.493295e+03
  3.325503e+00    2.481813e+03
  3.348286e+00    2.472075e+03
  3.371069e+00    2.463068e+03
  3.393851e+00    2.455232e+03
  3.416634e+00    2.448141e+03
  3.439417e+00    2.442832e+03
  3.462200e+00    2.443665e+03
  3.484983e+00    2.449344e+03
  3.507765e+00    2.453529e+03
  3.530548e+00    2.456313e+03
  3.553331e+00    2.454418e+03
  3.576114e+00    2.449771e+03
  3.598897e+00    2.446438e+03
  3.621679e+00    2.447838e+03
  3.644462e+00    2.454712e+03
  3.667245e+00    2.461275e+03
  3.690028e+00    2.467734e+03
  3.712811e+00    2.475512e+03
  3.735593e+00    2.485661e+03
  3.758376e+00    2.496895e+03
  3.781159e+00    2.508342e+03
  3.803942e+00    2.520574e+03
  3.826725e+00    2.532522e+03
  3.849507e+00    2.542951e+03
  3.872290e+00    2.553832e+03
  3.895073e+00    2.568897e+03
  3.917856e+00    2.580675e+03
  3.940638e+00    2.588505e+03
  3.963421e+00    2.599591e+03
  3.986204e+00    2.611335e+03
  4.008987e+00    2.621743e+03
  4.031770e+00    2.631637e+03
  4.054552e+00    2.643724e+03
  4.077335e+00    2.658999e+03
  4.100118e+00    2.667502e+03
  4.122901e+00    2.678257e+03
  4.145684e+00    2.686671e+03
  4.168466e+00    2.689530e+03
  4.191249e+00    2.688487e+03
  4.214032e+00    2.687863e+03
  4.236815e+00    2.692028e+03
  4.259598e+00    2.692057e+03
  4.282380e+00    2.684963e+03
  4.305163e+00    2.681717e+03
  4.327946e+00    2.677511e+03
  4.350729e+00    2.672133e+03
  4.373512e+00    2.665370e+03
  4.396294e+00    2.657615e+03
  4.419077e+00    2.648111e+03
  4.441860e+00    2.636143e+03
  4.464643e+00    2.625932e+03
  4.487426e+00    2.621401e+03
  4.510208e+00    2.606173e+03
  4.532991e+00    2.586950e+03
  4.555774e+00    2.571152e+03
  4.578557e+00    2.554663e+03
  4.601340e+00    2.537212e+03
  4.624122e+00    2.519200e+03
  4.646905e+00    2.504321e+03
  4.669688e+00    2.492094e+03
  4.692471e+00    2.468628e+03
  4.715253e+00    2.450309e+03
  4.738036e+00    2.434425e+03
  4.760819e+00    2.418658e+03
  4.783602e+00    2.401826e+03
  4.806385e+00    2.385162e+03
  4.829167e+00    2.373923e+03
  4.851950e+00    2.358114e+03
  4.874733e+00    2.339718e+03
  4.897516e+00    2.327025e+03
  4.920299e+00    2.315602e+03
  4.943081e+00    2.304981e+03
  4.965864e+00    2.294336e+03
  4.988647e+00    2.284249e+03
  5.011430e+00    2.274752e+03
  5.034213e+00    2.257731e+03
  5.056995e+00    2.245413e+03
  5.079778e+00    2.239175e+03
  5.102561e+00    2.223784e+03
  5.125344e+00    2.209323e+03
  5.148127e+00    2.196938e+03
  5.170909e+00    2.184540e+03
  5.193692e+00    2.170659e+03
  5.216475e+00    2.156733e+03
  5.239258e+00    2.145104e+03
  5.262041e+00    2.130678e+03
  5.284823e+00    2.110003e+03
  5.307606e+00    2.092989e+03
  5.330389e+00    2.076148e+03
  5.353172e+00    2.057861e+03
  5.375955e+00    2.038588e+03
  5.398737e+00    2.019756e+03
  5.421520e+00    2.003681e+03
  5.444303e+00    1.980044e+03
  5.467086e+00    1.956774e+03
  5.489869e+00    1.934968e+03
  5.512651e+00    1.913385e+03
  5.535434e+00    1.892496e+03
  5.558217e+00    1.872751e+03
  5.581000e+00    1.855804e+03
  5.603782e+00    1.836966e+03
  5.626565e+00    1.815100e+03
  5.649348e+00    1.796962e+03
  5.672131e+00    1.779623e+03
  5.694914e+00    1.758706e+03
  5.717696e+00    1.741681e+03
  5.740479e+00    1.727038e+03
  5.763262e+00    1.713165e+03
  5.786045e+00    1.700103e+03
  5.808828e+00    1.688905e+03
  5.831610e+00    1.679894e+03
  5.854393e+00    1.666599e+03
  5.877176e+00    1.653087e+03
  5.899959e+00    1.642303e+03
  5.922742e+00    1.632541e+03
  5.945524e+00    1.623070e+03
  5.968307e+00    1.614339e+03
  5.991090e+00    1.608306e+03
  6.013873e+00    1.601728e+03
  6.036656e+00    1.591747e+03
  6.059438e+00    1.586325e+03
  6.082221e+00    1.581499e+03
  6.105004e+00    1.571650e+03
  6.127787e+00    1.563676e+03
  6.150570e+00    1.557224e+03
  6.173352e+00    1.551615e+03
  6.196135e+00    1.543634e+03
  6.218918e+00    1.535929e+03
  6.241701e+00    1.530400e+03
  6.264484e+00    1.522860e+03
  6.287266e+00    1.514921e+03
  6.310049e+00    1.508352e+03
  6.332832e+00    1.501900e+03
  6.355615e+00    1.494792e+03
  6.378397e+00    1.487631e+03
  6.401180e+00    1.481855e+03
  6.423963e+00    1.475778e+03
  6.446746e+00    1.467027e+03
  6.469529e+00    1.459659e+03
  6.492311e+00    1.452515e+03
  6.515094e+00    1.444902e+03
  6.537877e+00    1.437146e+03
  6.560660e+00    1.429512e+03
  6.583443e+00    1.422668e+03
  6.606225e+00    1.413865e+03
  6.629008e+00    1.405680e+03
  6.651791e+00    1.399295e+03
  6.674574e+00    1.391713e+03
  6.697357e+00    1.384021e+03
  6.720139e+00    1.377266e+03
  6.742922e+00    1.371197e+03
  6.765705e+00    1.364200e+03
  6.788488e+00    1.356381e+03
  6.811271e+00    1.349540e+03
  6.834053e+00    1.342988e+03
  6.856836e+00    1.335501e+03
  6.879619e+00    1.328870e+03
  6.902402e+00    1.322662e+03
  6.925185e+00    1.316350e+03
  6.947967e+00    1.309789e+03
  6.970750e+00    1.303914e+03
  6.993533e+00    1.298729e+03
  7.016316e+00    1.293118e+03
  7.039099e+00    1.288096e+03
  7.061881e+00    1.283364e+03
  7.084664e+00    1.278779e+03
  7.107447e+00    1.274447e+03
  7.130230e+00    1.270341e+03
  7.153013e+00    1.266845e+03
  7.175795e+00    1.263404e+03
  7.198578e+00    1.259974e+03
  7.221361e+00    1.257294e+03
  7.244144e+00    1.255234e+03
  7.266926e+00    1.253365e+03
  7.289709e+00    1.251719e+03
  7.312492e+00    1.250488e+03
  7.335275e+00    1.249659e+03
  7.358058e+00    1.249235e+03
  7.380840e+00    1.248945e+03
  7.403623e+00    1.248389e+03
  7.426406e+00    1.247862e+03
  7.449189e+00    1.248142e+03
  7.471972e+00    1.249064e+03
  7.494754e+00    1.250301e+03
  7.517537e+00    1.251547e+03
  7.540320e+00    1.253292e+03
  7.563103e+00    1.254952e+03
  7.585886e+00    1.256490e+03
  7.608668e+00    1.258188e+03
  7.631451e+00    1.260309e+03
  7.654234e+00    1.262380e+03
  7.677017e+00    1.264237e+03
  7.699800e+00    1.265647e+03
  7.722582e+00    1.267116e+03
  7.745365e+00    1.268343e+03
  7.768148e+00    1.269719e+03
  7.790931e+00    1.271373e+03
  7.813714e+00    1.272750e+03
  7.836496e+00    1.274073e+03
  7.859279e+00    1.275269e+03
  7.882062e+00    1.276156e+03
  7.904845e+00    1.276458e+03
  7.927628e+00    1.275832e+03
  7.950410e+00    1.275613e+03
  7.973193e+00    1.275115e+03
  7.995976e+00    1.273778e+03
  8.018759e+00    1.272426e+03
  8.041541e+00    1.270856e+03
  8.064324e+00    1.268990e+03
  8.087107e+00    1.266497e+03
  8.109890e+00    1.264059e+03
  8.132673e+00    1.261935e+03
  8.155455e+00    1.258759e+03
  8.178238e+00    1.255440e+03
  8.201021e+00    1.252489e+03
  8.223804e+00    1.249425e+03
  8.246587e+00    1.246264e+03
  8.269369e+00    1.243008e+03
  8.292152e+00    1.239555e+03
  8.314935e+00    1.235795e+03
  8.337718e+00    1.231662e+03
  8.360501e+00    1.227881e+03
  8.383283e+00    1.224436e+03
  8.406066e+00    1.220965e+03
  8.428849e+00    1.217151e+03
  8.451632e+00    1.213331e+03
  8.474415e+00    1.209676e+03
  8.497197e+00    1.206075e+03
  8.519980e+00    1.202122e+03
  8.542763e+00    1.198282e+03
  8.565546e+00    1.195122e+03
  8.588329e+00    1.191980e+03
  8.611111e+00    1.188813e+03
  8.633894e+00    1.185099e+03
  8.656677e+00    1.181638e+03
  8.679460e+00    1.178315e+03
  8.702243e+00    1.174886e+03
  8.725025e+00    1.171619e+03
  8.747808e+00    1.168567e+03
  8.770591e+00    1.165640e+03
  8.793374e+00    1.162535e+03
  8.816156e+00    1.158832e+03
  8.838939e+00    1.155181e+03
  8.861722e+00    1.151341e+03
  8.884505e+00    1.147588e+03
  8.907288e+00    1.143964e+03
  8.930070e+00    1.140177e+03
  8.952853e+00    1.136407e+03
  8.975636e+00    1.132694e+03
  8.998419e+00    1.128823e+03
  9.021202e+00    1.124910e+03
  9.043984e+00    1.121154e+03
  9.066767e+00    1.117134e+03
  9.089550e+00    1.113036e+03
  9.112333e+00    1.109243e+03
  9.135116e+00    1.105252e+03
  9.157898e+00    1.100839e+03
  9.180681e+00    1.096378e+03
  9.203464e+00    1.091786e+03
  9.226247e+00    1.087008e+03
  9.249030e+00    1.082072e+03
  9.271812e+00    1.077516e+03
  9.294595e+00    1.072968e+03
  9.317378e+00    1.068168e+03
  9.340161e+00    1.063813e+03
  9.362944e+00    1.059108e+03
  9.385726e+00    1.054355e+03
  9.408509e+00    1.049676e+03
  9.431292e+00    1.045194e+03
  9.454075e+00    1.040663e+03
  9.476858e+00    1.036143e+03
  9.499640e+00    1.031714e+03
  9.522423e+00    1.027227e+03
  9.545206e+00    1.022628e+03
  9.567989e+00    1.018146e+03
  9.590772e+00    1.013652e+03
  9.613554e+00    1.009294e+03
  9.636337e+00    1.004877e+03
  9.659120e+00    1.000682e+03
  9.681903e+00    9.967520e+02
  9.704685e+00    9.929418e+02
  9.727468e+00    9.890452e+02
  9.750251e+00    9.852326e+02
  9.773034e+00    9.820448e+02
  9.795817e+00    9.785065e+02
  9.818599e+00    9.748329e+02
  9.841382e+00    9.712297e+02
  9.864165e+00    9.679672e+02
  9.886948e+00    9.649156e+02
  9.909731e+00    9.618455e+02
  9.932513e+00    9.588830e+02
  9.955296e+00    9.561318e+02
  9.978079e+00    9.534968e+02
  1.000086e+01    9.510605e+02
  1.002364e+01    9.485635e+02
  1.004643e+01    9.461639e+02
  1.006921e+01    9.437838e+02
  1.009199e+01    9.414850e+02
  1.011478e+01    9.393642e+02
  1.013756e+01    9.370864e+02
  1.016034e+01    9.348676e+02
  1.018312e+01    9.326292e+02
  1.020591e+01    9.304531e+02
  1.022869e+01    9.284178e+02
  1.025147e+01    9.265602e+02
  1.027426e+01    9.246823e+02
  1.029704e+01    9.230404e+02
  1.031982e+01    9.214060e+02
  1.034260e+01    9.199102e+02
  1.036539e+01    9.183788e+02
  1.038817e+01    9.168336e+02
  1.041095e+01    9.152160e+02
  1.043373e+01    9.135499e+02
  1.045652e+01    9.119177e+02
  1.047930e+01    9.101555e+02
  1.050208e+01    9.087137e+02
  1.052487e+01    9.073142e+02
  1.054765e+01    9.058022e+02
  1.057043e+01    9.043148e+02
  1.059321e+01    9.027852e+02
  1.061600e+01    9.011996e+02
  1.063878e+01    8.996630e+02
  1.066156e+01    8.982849e+02
  1.068435e+01    8.968533e+02
  1.070713e+01    8.954414e+02
  1.072991e+01    8.937806e+02
  1.075269e+01    8.922390e+02
  1.077548e+01    8.906596e+02
  1.079826e+01    8.889266e+02
  1.082104e+01    8.873212e+02
  1.084383e+01    8.856219e+02
  1.086661e+01    8.839924e+02
  1.088939e+01    8.825710e+02
  1.091217e+01    8.811575e+02
  1.093496e+01    8.795908e+02
  1.095774e+01    8.779470e+02
  1.098052e+01    8.763668e+02
  1.100330e+01    8.748205e+02
  1.102609e+01    8.731834e+02
  1.104887e+01    8.716254e+02
  1.107165e+01    8.701307e+02
  1.109444e+01    8.685131e+02
  1.111722e+01    8.669633e+02
  1.114000e+01    8.653984e+02
  1.116278e+01    8.635945e+02
  1.118557e+01    8.619637e+02
  1.120835e+01    8.604705e+02
  1.123113e+01    8.588962e+02
  1.125392e+01    8.573146e+02
  1.127670e+01    8.556451e+02
  1.129948e+01    8.542641e+02
  1.132226e+01    8.529323e+02
  1.134505e+01    8.514794e+02
  1.136783e+01    8.499057e+02
  1.139061e+01    8.485426e+02
  1.141340e+01    8.472735e+02
  1.143618e+01    8.460614e+02
  1.145896e+01    8.448736e+02
  1.148174e+01    8.437363e+02
  1.150453e+01    8.426945e+02
  1.152731e+01    8.415920e+02
  1.155009e+01    8.405515e+02
  1.157287e+01    8.395024e+02
  1.159566e+01    8.385610e+02
  1.161844e+01    8.376843e+02
  1.164122e+01    8.366839e+02
  1.166401e+01    8.358609e+02
  1.168679e+01    8.351044e+02
  1.170957e+01    8.343958e+02
  1.173235e+01    8.336857e+02
  1.175514e+01    8.329898e+02
  1.177792e+01    8.324119e+02
  1.180070e+01    8.319512e+02
  1.182349e+01    8.313680e+02
  1.184627e+01    8.308636e+02
  1.186905e+01    8.303754e+02
  1.189183e+01    8.299086e+02
  1.191462e+01    8.294567e+02
  1.193740e+01    8.290787e+02
  1.196018e+01    8.288150e+02
  1.198296e+01    8.284048e+02
  1.200575e+01    8.280584e+02
  1.202853e+01    8.277735e+02
  1.205131e+01    8.274373e+02
  1.207410e+01    8.270822e+02
  1.209688e+01    8.267781e+02
  1.211966e+01    8.263550e+02
  1.214244e+01    8.259405e+02
  1.216523e+01    8.255410e+02
  1.218801e+01    8.250103e+02
  1.221079e+01    8.245734e+02
  1.223358e+01    8.239752e+02
  1.225636e+01    8.232771e+02
  1.227914e+01    8.225795e+02
  1.230192e+01    8.218620e+02
  1.232471e+01    8.211819e+02
  1.234749e+01    8.205029e+02
  1.237027e+01    8.196477e+02
  1.239306e+01    8.187849e+02
  1.241584e+01    8.178051e+02
  1.243862e+01    8.167511e+02
  1.246140e+01    8.157615e+02
  1.248419e+01    8.147549e+02
  1.250697e+01    8.135618e+02
  1.252975e+01    8.121601e+02
  1.255253e+01    8.108444e+02
  1.257532e+01    8.094835e+02
  1.259810e+01    8.079883e+02
  1.262088e+01    8.065486e+02
  1.264367e+01    8.050383e+02
  1.266645e+01    8.034224e+02
  1.268923e+01    8.016816e+02
  1.271201e+01    7.998403e+02
  1.273480e+01    7.979766e+02
  1.275758e+01    7.962448e+02
  1.278036e+01    7.944868e+02
  1.280315e+01    7.927568e+02
  1.282593e+01    7.908925e+02
  1.284871e+01    7.891175e+02
  1.287149e+01    7.873299e+02
  1.289428e+01    7.853651e+02
  1.291706e+01    7.835021e+02
  1.293984e+01    7.815863e+02
  1.296263e+01    7.796495e+02
  1.298541e+01    7.778165e+02
  1.300819e+01    7.759603e+02
  1.303097e+01    7.739797e+02
  1.305376e+01    7.720201e+02
  1.307654e+01    7.699954e+02
  1.309932e+01    7.679742e+02
  1.312210e+01    7.660919e+02
  1.314489e+01    7.642404e+02
  1.316767e+01    7.623698e+02
  1.319045e+01    7.605203e+02
  1.321324e+01    7.585903e+02
  1.323602e+01    7.566238e+02
  1.325880e+01    7.547898e+02
  1.328158e+01    7.529968e+02
  1.330437e+01    7.512139e+02
  1.332715e+01    7.495663e+02
  1.334993e+01    7.477609e+02
  1.337272e+01    7.460139e+02
  1.339550e+01    7.443176e+02
  1.341828e+01    7.426683e+02
  1.344106e+01    7.409529e+02
  1.346385e+01    7.395277e+02
  1.348663e+01    7.380814e+02
  1.350941e+01    7.365422e+02
  1.353219e+01    7.349037e+02
  1.355498e+01    7.332247e+02
  1.357776e+01    7.314528e+02
  1.360054e+01    7.298479e+02
  1.362333e+01    7.282719e+02
  1.364611e+01    7.267167e+02
  1.366889e+01    7.252170e+02
  1.369167e+01    7.237087e+02
  1.371446e+01    7.222006e+02
  1.373724e+01    7.209064e+02
  1.376002e+01    7.196205e+02
  1.378281e+01    7.183716e+02
  1.380559e+01    7.171010e+02
  1.382837e+01    7.157417e+02
  1.385115e+01    7.145673e+02
  1.387394e+01    7.134867e+02
  1.389672e+01    7.123424e+02
  1.391950e+01    7.112176e+02
  1.394229e+01    7.101802e+02
  1.396507e+01    7.089922e+02
  1.398785e+01    7.076329e+02
  1.401063e+01    7.064202e+02
  1.403342e+01    7.052885e+02
  1.405620e+01    7.041575e+02
  1.407898e+01    7.030221e+02
  1.410176e+01    7.020764e+02
  1.412455e+01    7.010056e+02
  1.414733e+01    7.000069e+02
  1.417011e+01    6.990509e+02
  1.419290e+01    6.980577e+02
  1.421568e+01    6.971907e+02
  1.423846e+01    6.961971e+02
  1.426124e+01    6.951741e+02
  1.428403e+01    6.942249e+02
  1.430681e+01    6.932416e+02
  1.432959e+01    6.922057e+02
  1.435238e+01    6.912038e+02
  1.437516e+01    6.902460e+02
  1.439794e+01    6.893132e+02
  1.442072e+01    6.883946e+02
  1.444351e+01    6.875761e+02
  1.446629e+01    6.867312e+02
  1.448907e+01    6.858650e+02
  1.451186e+01    6.850332e+02
  1.453464e+01    6.842044e+02
  1.455742e+01    6.834124e+02
  1.458020e+01    6.826653e+02
  1.460299e+01    6.817495e+02
  1.462577e+01    6.809279e+02
  1.464855e+01    6.801395e+02
  1.467133e+01    6.793129e+02
  1.469412e+01    6.785081e+02
  1.471690e+01    6.777105e+02
  1.473968e+01    6.767422e+02
  1.476247e+01    6.759194e+02
  1.478525e+01    6.751641e+02
  1.480803e+01    6.743537e+02
  1.483081e+01    6.735694e+02
  1.485360e+01    6.727597e+02
  1.487638e+01    6.720477e+02
  1.489916e+01    6.713229e+02
  1.492195e+01    6.705609e+02
  1.494473e+01    6.697698e+02
  1.496751e+01    6.689501e+02
  1.499029e+01    6.681453e+02
  1.501308e+01    6.673738e+02
  1.503586e+01    6.669268e+02
  1.505864e+01    6.660053e+02
  1.508142e+01    6.651935e+02
  1.510421e+01    6.642684e+02
  1.512699e+01    6.633762e+02
  1.514977e+01    6.625376e+02
  1.517256e+01    6.618268e+02
  1.519534e+01    6.610182e+02
  1.521812e+01    6.601822e+02
  1.524090e+01    6.593616e+02
  1.526369e+01    6.584913e+02
  1.528647e+01    6.576710e+02
  1.530925e+01    6.568647e+02
  1.533204e+01    6.560588e+02
  1.535482e+01    6.552503e+02
  1.537760e+01    6.544236e+02
  1.540038e+01    6.536075e+02
  1.542317e+01    6.527535e+02
  1.544595e+01    6.519568e+02
  1.546873e+01    6.510676e+02
  1.549152e+01    6.501503e+02
  1.551430e+01    6.492946e+02
  1.553708e+01    6.484679e+02
  1.555986e+01    6.475729e+02
  1.558265e+01    6.467270e+02
  1.560543e+01    6.458672e+02
  1.562821e+01    6.450544e+02
  1.565099e+01    6.442219e+02
  1.567378e+01    6.433215e+02
  1.569656e+01    6.424846e+02
  1.571934e+01    6.415837e+02
  1.574213e+01    6.407684e+02
  1.576491e+01    6.399908e+02
  1.578769e+01    6.391765e+02
  1.581047e+01    6.383516e+02
  1.583326e+01    6.374921e+02
  1.585604e+01    6.365897e+02
  1.587882e+01    6.356832e+02
  1.590161e+01    6.348604e+02
  1.592439e+01    6.340436e+02
  1.594717e+01    6.332173e+02
  1.596995e+01    6.324572e+02
  1.599274e+01    6.317238e+02
  1.601552e+01    6.309390e+02
  1.603830e+01    6.302144e+02
  1.606109e+01    6.293952e+02
  1.608387e+01    6.287360e+02
  1.610665e+01    6.278839e+02
  1.612943e+01    6.271357e+02
  1.615222e+01    6.263875e+02
  1.617500e+01    6.255767e+02
  1.619778e+01    6.248979e+02
  1.622056e+01    6.242258e+02
  1.624335e+01    6.234294e+02
  1.626613e+01    6.227117e+02
  1.628891e+01    6.219881e+02
  1.631170e+01    6.212384e+02
  1.633448e+01    6.204893e+02
  1.635726e+01    6.197358e+02
  1.638004e+01    6.189908e+02
  1.640283e+01    6.182827e+02
  1.642561e+01    6.176471e+02
  1.644839e+01    6.168721e+02
  1.647118e+01    6.161136e+02
  1.649396e+01    6.153447e+02
  1.651674e+01    6.146340e+02
  1.653952e+01    6.138981e+02
  1.656231e+01    6.131217e+02
  1.658509e+01    6.123643e+02
  1.660787e+01    6.116481e+02
  1.663065e+01    6.108969e+02
  1.665344e+01    6.101266e+02
  1.667622e+01    6.093729e+02
  1.669900e+01    6.085874e+02
  1.672179e+01    6.078008e+02
  1.674457e+01    6.069296e+02
  1.676735e+01    6.061412e+02
  1.679013e+01    6.052499e+02
  1.681292e+01    6.043139e+02
  1.683570e+01    6.034237e+02
  1.685848e+01    6.025205e+02
  1.688127e+01    6.016855e+02
  1.690405e+01    6.007701e+02
  1.692683e+01    5.998995e+02
  1.694961e+01    5.988956e+02
  1.697240e+01    5.979502e+02
  1.699518e+01    5.969707e+02
  1.701796e+01    5.960543e+02
  1.704075e+01    5.950602e+02
  1.706353e+01    5.941101e+02
  1.708631e+01    5.931237e+02
  1.710909e+01    5.920182e+02
  1.713188e+01    5.909091e+02
  1.715466e+01    5.898502e+02
  1.717744e+01    5.888301e+02
  1.720022e+01    5.877850e+02
  1.722301e+01    5.868048e+02
  1.724579e+01    5.857708e+02
  1.726857e+01    5.847398e+02
  1.729136e+01    5.836690e+02
  1.731414e+01    5.826266e+02
  1.733692e+01    5.815641e+02
  1.735970e+01    5.805035e+02
  1.738249e+01    5.793985e+02
  1.740527e+01    5.783279e+02
  1.742805e+01    5.773059e+02
  1.745084e+01    5.762087e+02
  1.747362e+01    5.750737e+02
  1.749640e+01    5.741065e+02
  1.751918e+01    5.729991e+02
  1.754197e+01    5.718568e+02
  1.756475e+01    5.708319e+02
  1.758753e+01    5.697303e+02
  1.761032e+01    5.687021e+02
  1.763310e+01    5.677911e+02
  1.765588e+01    5.667736e+02
  1.767866e+01    5.658374e+02
  1.770145e+01    5.647529e+02
  1.772423e+01    5.637175e+02
  1.774701e+01    5.628013e+02
  1.776979e+01    5.619073e+02
  1.779258e+01    5.609084e+02
  1.781536e+01    5.599545e+02
  1.783814e+01    5.589098e+02
  1.786093e+01    5.579647e+02
  1.788371e+01    5.571268e+02
  1.790649e+01    5.562726e+02
  1.792927e+01    5.554271e+02
  1.795206e+01    5.544943e+02
  1.797484e+01    5.535359e+02
  1.799762e+01    5.526233e+02
  1.802041e+01    5.518436e+02
  1.804319e+01    5.510349e+02
  1.806597e+01    5.502169e+02
  1.808875e+01    5.493868e+02
  1.811154e+01    5.484722e+02
  1.813432e+01    5.476507e+02
  1.815710e+01    5.468959e+02
  1.817989e+01    5.460625e+02
  1.820267e+01    5.451774e+02
  1.822545e+01    5.443687e+02
  1.824823e+01    5.435206e+02
  1.827102e+01    5.427294e+02
  1.829380e+01    5.418912e+02
  1.831658e+01    5.410804e+02
  1.833936e+01    5.403704e+02
  1.836215e+01    5.395989e+02
  1.838493e+01    5.388226e+02
  1.840771e+01    5.381046e+02
  1.843050e+01    5.373575e+02
  1.845328e+01    5.366225e+02
  1.847606e+01    5.358220e+02
  1.849884e+01    5.351548e+02
  1.852163e+01    5.344105e+02
  1.854441e+01    5.336561e+02
  1.856719e+01    5.328666e+02
  1.858998e+01    5.321661e+02
  1.861276e+01    5.314601e+02
  1.863554e+01    5.307579e+02
  1.865832e+01    5.301139e+02
  1.868111e+01    5.293345e+02
  1.870389e+01    5.286016e+02
  1.872667e+01    5.280153e+02
  1.874945e+01    5.273428e+02
  1.877224e+01    5.266607e+02
  1.879502e+01    5.259665e+02
  1.881780e+01    5.253283e+02
  1.884059e+01    5.246451e+02
  1.886337e+01    5.240198e+02
  1.888615e+01    5.234247e+02
  1.890893e+01    5.226920e+02
  1.893172e+01    5.220900e+02
  1.895450e+01    5.213986e+02
  1.897728e+01    5.207137e+02
  1.900007e+01    5.200214e+02
  1.902285e+01    5.192656e+02
  1.904563e+01    5.186605e+02
  1.906841e+01    5.180405e+02
  1.909120e+01    5.173630e+02
  1.911398e+01    5.166714e+02
  1.913676e+01    5.160248e+02
  1.915955e+01    5.152743e+02
  1.918233e+01    5.146056e+02
  1.920511e+01    5.139720e+02
  1.922789e+01    5.132700e+02
  1.925068e+01    5.126315e+02
  1.927346e+01    5.119473e+02
  1.929624e+01    5.112515e+02
  1.931902e+01    5.105094e+02
  1.934181e+01    5.098453e+02
  1.936459e+01    5.091380e+02
  1.938737e+01    5.084458e+02
  1.941016e+01    5.077942e+02
  1.943294e+01    5.070630e+02
  1.945572e+01    5.063809e+02
  1.947850e+01    5.057255e+02
  1.950129e+01    5.050916e+02
  1.952407e+01    5.044814e+02
  1.954685e+01    5.038224e+02
  1.956964e+01    5.031576e+02
  1.959242e+01    5.024329e+02
  1.961520e+01    5.017342e+02
  1.963798e+01    5.010792e+02
  1.966077e+01    5.004347e+02
  1.968355e+01    4.997675e+02
  1.970633e+01    4.990046e+02
  1.972912e+01    4.982914e+02
  1.975190e+01    4.975564e+02
  1.977468e+01    4.968229e+02
  1.979746e+01    4.960882e+02
  1.982025e+01    4.953547e+02
  1.984303e+01    4.946692e+02
  1.986581e+01    4.939986e+02
  1.988859e+01    4.932541e+02
  1.991138e+01    4.925555e+02
  1.993416e+01    4.918323e+02
  1.995694e+01    4.911023e+02
  1.997973e+01    4.903182e+02
  2.000251e+01    4.896114e+02
  2.002529e+01    4.888251e+02
  2.004807e+01    4.880429e+02
  2.007086e+01    4.872714e+02
  2.009364e+01    4.865462e+02
  2.011642e+01    4.858027e+02
  2.013921e+01    4.850503e+02
  2.016199e+01    4.842227e+02
  2.018477e+01    4.834136e+02
  2.020755e+01    4.825690e+02
  2.023034e+01    4.818379e+02
  2.025312e+01    4.810616e+02
  2.027590e+01    4.802847e+02
  2.029868e+01    4.793899e+02
  2.032147e+01    4.785628e+02
  2.034425e+01    4.777875e+02
  2.036703e+01    4.769731e+02
  2.038982e+01    4.761884e+02
  2.041260e+01    4.753987e+02
  2.043538e+01    4.746626e+02
  2.045816e+01    4.738768e+02
  2.048095e+01    4.730994e+02
  2.050373e+01    4.723769e+02
  2.052651e+01    4.716999e+02
  2.054930e+01    4.709815e+02
  2.057208e+01    4.701975e+02
  2.059486e+01    4.694422e+02
  2.061764e+01    4.687354e+02
  2.064043e+01    4.680378e+02
  2.066321e+01    4.673302e+02
  2.068599e+01    4.665801e+02
  2.070878e+01    4.658233e+02
  2.073156e+01    4.651246e+02
  2.075434e+01    4.643485e+02
  2.077712e+01    4.635320e+02
  2.079991e+01    4.627101e+02
  2.082269e+01    4.619774e+02
  2.084547e+01    4.612254e+02
  2.086825e+01    4.604314e+02
  2.089104e+01    4.597036e+02
  2.091382e+01    4.589958e+02
  2.093660e+01    4.582469e+02
  2.095939e+01    4.575122e+02
  2.098217e+01    4.567231e+02
  2.100495e+01    4.559918e+02
  2.102773e+01    4.552580e+02
  2.105052e+01    4.544751e+02
  2.107330e+01    4.536638e+02
  2.109608e+01    4.528562e+02
  2.111887e+01    4.521144e+02
  2.114165e+01    4.513350e+02
  2.116443e+01    4.506210e+02
  2.118721e+01    4.499352e+02
  2.121000e+01    4.492242e+02
  2.123278e+01    4.484252e+02
  2.125556e+01    4.476560e+02
  2.127835e+01    4.468983e+02
  2.130113e+01    4.461800e+02
  2.132391e+01    4.454253e+02
  2.134669e+01    4.446306e+02
  2.136948e+01    4.438568e+02
  2.139226e+01    4.430804e+02
  2.141504e+01    4.425253e+02
  2.143782e+01    4.420948e+02
  2.146061e+01    4.412198e+02
  2.148339e+01    4.403800e+02
  2.150617e+01    4.395952e+02
  2.152896e+01    4.388268e+02
  2.155174e+01    4.380380e+02
  2.157452e+01    4.372521e+02
  2.159730e+01    4.364818e+02
  2.162009e+01    4.357472e+02
  2.164287e+01    4.349987e+02
  2.166565e+01    4.342490e+02
  2.168844e+01    4.334953e+02
  2.171122e+01    4.327561e+02
  2.173400e+01    4.319641e+02
  2.175678e+01    4.312132e+02
  2.177957e+01    4.305226e+02
  2.180235e+01    4.297654e+02
  2.182513e+01    4.290535e+02
  2.184791e+01    4.282869e+02
  2.187070e+01    4.275451e+02
  2.189348e+01    4.268325e+02
  2.191626e+01    4.260938e+02
  2.193905e+01    4.254297e+02
  2.196183e+01    4.246987e+02
  2.198461e+01    4.239414e+02
  2.200739e+01    4.232232e+02
  2.203018e+01    4.224860e+02
  2.205296e+01    4.218035e+02
  2.207574e+01    4.210355e+02
  2.209853e+01    4.203159e+02
  2.212131e+01    4.196316e+02
  2.214409e+01    4.188855e+02
  2.216687e+01    4.181988e+02
  2.218966e+01    4.175048e+02
  2.221244e+01    4.167524e+02
  2.223522e+01    4.160084e+02
  2.225801e+01    4.153514e+02
  2.228079e+01    4.147140e+02
  2.230357e+01    4.139906e+02
  2.232635e+01    4.132506e+02
  2.234914e+01    4.125395e+02
  2.237192e+01    4.118983e+02
  2.239470e+01    4.111313e+02
  2.241748e+01    4.104234e+02
  2.244027e+01    4.097102e+02
  2.246305e+01    4.090349e+02
  2.248583e+01    4.083439e+02
  2.250862e+01    4.076495e+02
  2.253140e+01    4.070051e+02
  2.255418e+01    4.063561e+02
  2.257696e+01    4.056672e+02
  2.259975e+01    4.049681e+02
  2.262253e+01    4.042950e+02
  2.264531e+01    4.035949e+02
  2.266810e+01    4.029934e+02
  2.269088e+01    4.022692e+02
  2.271366e+01    4.016272e+02
  2.273644e+01    4.009902e+02
  2.275923e+01    4.003432e+02
  2.278201e+01    3.996815e+02
  2.280479e+01    3.989812e+02
  2.282758e+01    3.983044e+02
  2.285036e+01    3.977007e+02
  2.287314e+01    3.970489e+02
  2.289592e+01    3.963991e+02
  2.291871e+01    3.957167e+02
  2.294149e+01    3.950844e+02
  2.296427e+01    3.943747e+02
  2.298705e+01    3.937090e+02
  2.300984e+01    3.930710e+02
  2.303262e+01    3.924178e+02
  2.305540e+01    3.917974e+02
  2.307819e+01    3.911641e+02
  2.310097e+01    3.904499e+02
  2.312375e+01    3.897403e+02
  2.314653e+01    3.890896e+02
  2.316932e+01    3.884166e+02
  2.319210e+01    3.877420e+02
  2.321488e+01    3.871062e+02
  2.323767e+01    3.864795e+02
  2.326045e+01    3.858327e+02
  2.328323e+01    3.851923e+02
  2.330601e+01    3.845196e+02
  2.332880e+01    3.838587e+02
  2.335158e+01    3.831786e+02
  2.337436e+01    3.825243e+02
  2.339714e+01    3.819269e+02
  2.341993e+01    3.813057e+02
  2.344271e+01    3.806571e+02
  2.346549e+01    3.799379e+02
  2.348828e+01    3.792580e+02
  2.351106e+01    3.785914e+02
  2.353384e+01    3.779509e+02
  2.355662e+01    3.773224e+02
  2.357941e+01    3.766721e+02
  2.360219e+01    3.760240e+02
  2.362497e+01    3.754254e+02
  2.364776e+01    3.747465e+02
  2.367054e+01    3.741026e+02
  2.369332e+01    3.737277e+02
  2.371610e+01    3.731722e+02
  2.373889e+01    3.723216e+02
  2.376167e+01    3.715720e+02
  2.378445e+01    3.708844e+02
  2.380724e+01    3.701692e+02
  2.383002e+01    3.695148e+02
  2.385280e+01    3.688174e+02
  2.387558e+01    3.681463e+02
  2.389837e+01    3.674629e+02
  2.392115e+01    3.667741e+02
  2.394393e+01    3.660883e+02
  2.396671e+01    3.654025e+02
  2.398950e+01    3.647389e+02
  2.401228e+01    3.640633e+02
  2.403506e+01    3.634548e+02
  2.405785e+01    3.627858e+02
  2.408063e+01    3.620936e+02
  2.410341e+01    3.614731e+02
  2.412619e+01    3.607482e+02
  2.414898e+01    3.600737e+02
  2.417176e+01    3.593827e+02
  2.419454e+01    3.587974e+02
  2.421733e+01    3.581428e+02
  2.424011e+01    3.574333e+02
  2.426289e+01    3.567535e+02
  2.428567e+01    3.561244e+02
  2.430846e+01    3.554729e+02
  2.433124e+01    3.547898e+02
  2.435402e+01    3.541183e+02
  2.437681e+01    3.534564e+02
  2.439959e+01    3.527562e+02
  2.442237e+01    3.520261e+02
  2.444515e+01    3.513698e+02
  2.446794e+01    3.506794e+02
  2.449072e+01    3.500213e+02
  2.451350e+01    3.493615e+02
  2.453628e+01    3.486553e+02
  2.455907e+01    3.480228e+02
  2.458185e+01    3.473547e+02
  2.460463e+01    3.466619e+02
  2.462742e+01    3.459505e+02
  2.465020e+01    3.453062e+02
  2.467298e+01    3.446208e+02
  2.469576e+01    3.439770e+02
  2.471855e+01    3.432730e+02
  2.474133e+01    3.426345e+02
  2.476411e+01    3.419482e+02
  2.478690e+01    3.413379e+02
  2.480968e+01    3.406110e+02
  2.483246e+01    3.399561e+02
  2.485524e+01    3.392472e+02
  2.487803e+01    3.385586e+02
  2.490081e+01    3.379350e+02
  2.492359e+01    3.372165e+02
  2.494637e+01    3.365515e+02
  2.496916e+01    3.358537e+02
  2.499194e+01    3.351813e+02
  2.501472e+01    3.345303e+02
  2.503751e+01    3.338599e+02
  2.506029e+01    3.331556e+02
  2.508307e+01    3.324919e+02
  2.510585e+01    3.317863e+02
  2.512864e+01    3.310993e+02
  2.515142e+01    3.304564e+02
  2.517420e+01    3.297625e+02
  2.519699e+01    3.290745e+02
  2.521977e+01    3.284300e+02
  2.524255e+01    3.277957e+02
  2.526533e+01    3.271506e+02
  2.528812e+01    3.264876e+02
  2.531090e+01    3.257861e+02
  2.533368e+01    3.250961e+02
  2.535647e+01    3.245167e+02
  2.537925e+01    3.238806e+02
  2.540203e+01    3.232755e+02
  2.542481e+01    3.226648e+02
  2.544760e+01    3.219948e+02
  2.547038e+01    3.213211e+02
  2.549316e+01    3.206526e+02
  2.551594e+01    3.200510e+02
  2.553873e+01    3.194261e+02
  2.556151e+01    3.187874e+02
  2.558429e+01    3.180997e+02
  2.560708e+01    3.174593e+02
  2.562986e+01    3.168055e+02
  2.565264e+01    3.161570e+02
  2.567542e+01    3.155078e+02
  2.569821e+01    3.148642e+02
  2.572099e+01    3.142883e+02
  2.574377e+01    3.136527e+02
  2.576656e+01    3.130406e+02
  2.578934e+01    3.124102e+02
  2.581212e+01    3.117091e+02
  2.583490e+01    3.111194e+02
  2.585769e+01    3.104981e+02
  2.588047e+01    3.098813e+02
  2.590325e+01    3.092354e+02
  2.592604e+01    3.086171e+02
  2.594882e+01    3.079688e+02
  2.597160e+01    3.073693e+02
  2.599438e+01    3.067520e+02
  2.601717e+01    3.061134e+02
  2.603995e+01    3.054841e+02
  2.606273e+01    3.048480e+02
  2.608551e+01    3.042551e+02
  2.610830e+01    3.035872e+02
  2.613108e+01    3.029787e+02
  2.615386e+01    3.023784e+02
  2.617665e+01    3.017813e+02
  2.619943e+01    3.011829e+02
  2.622221e+01    3.005126e+02
  2.624499e+01    2.998563e+02
  2.626778e+01    2.992819e+02
  2.629056e+01    2.986817e+02
  2.631334e+01    2.980799e+02
  2.633613e+01    2.974627e+02
  2.635891e+01    2.968410e+02
  2.638169e+01    2.961686e+02
  2.640447e+01    2.955524e+02
  2.642726e+01    2.949629e+02
  2.645004e+01    2.943154e+02
  2.647282e+01    2.936621e+02
  2.649560e+01    2.930514e+02
  2.651839e+01    2.924347e+02
  2.654117e+01    2.918399e+02
  2.656395e+01    2.912118e+02
  2.658674e+01    2.906074e+02
  2.660952e+01    2.899728e+02
  2.663230e+01    2.893600e+02
  2.665508e+01    2.887545e+02
  2.667787e+01    2.881284e+02
  2.670065e+01    2.874850e+02
  2.672343e+01    2.868870e+02
  2.674622e+01    2.862743e+02
  2.676900e+01    2.856672e+02
  2.679178e+01    2.850808e+02
  2.681456e+01    2.844642e+02
  2.683735e+01    2.838253e+02
  2.686013e+01    2.831909e+02
  2.688291e+01    2.825873e+02
  2.690570e+01    2.819643e+02
  2.692848e+01    2.813386e+02
  2.695126e+01    2.807072e+02
  2.697404e+01    2.801082e+02
  2.699683e+01    2.795174e+02
  2.701961e+01    2.788727e+02
  2.704239e+01    2.782192e+02
  2.706517e+01    2.776180e+02
  2.708796e+01    2.769725e+02
  2.711074e+01    2.763186e+02
  2.713352e+01    2.756913e+02
  2.715631e+01    2.750861e+02
  2.717909e+01    2.744409e+02
  2.720187e+01    2.741242e+02
  2.722465e+01    2.744869e+02
  2.724744e+01    2.743380e+02
  2.727022e+01    2.740638e+02
  2.729300e+01    2.737286e+02
  2.731579e+01    2.733905e+02
  2.733857e+01    2.730027e+02
  2.736135e+01    2.726084e+02
  2.738413e+01    2.721863e+02
  2.740692e+01    2.716598e+02
  2.742970e+01    2.707440e+02
  2.745248e+01    2.699244e+02
  2.747527e+01    2.691981e+02
  2.749805e+01    2.685109e+02
  2.752083e+01    2.677986e+02
  2.754361e+01    2.671252e+02
  2.756640e+01    2.664273e+02
  2.758918e+01    2.656735e+02
  2.761196e+01    2.642718e+02
  2.763474e+01    2.630856e+02
  2.765753e+01    2.619884e+02
  2.768031e+01    2.609673e+02
  2.770309e+01    2.599823e+02
  2.772588e+01    2.590258e+02
  2.774866e+01    2.580608e+02
  2.777144e+01    2.571634e+02
  2.779422e+01    2.568257e+02
  2.781701e+01    2.569748e+02
  2.783979e+01    2.567289e+02
  2.786257e+01    2.562999e+02
  2.788536e+01    2.559012e+02
  2.790814e+01    2.554162e+02
  2.793092e+01    2.549165e+02
  2.795370e+01    2.544367e+02
  2.797649e+01    2.538951e+02
  2.799927e+01    2.533752e+02
  2.802205e+01    2.528615e+02
  2.804483e+01    2.523216e+02
  2.806762e+01    2.518408e+02
  2.809040e+01    2.513022e+02
  2.811318e+01    2.507445e+02
  2.813597e+01    2.501899e+02
  2.815875e+01    2.496706e+02
  2.818153e+01    2.490562e+02
  2.820431e+01    2.485185e+02
  2.822710e+01    2.479329e+02
  2.824988e+01    2.474192e+02
  2.827266e+01    2.468601e+02
  2.829545e+01    2.462971e+02
  2.831823e+01    2.457908e+02
  2.834101e+01    2.451799e+02
  2.836379e+01    2.446674e+02
  2.838658e+01    2.440649e+02
  2.840936e+01    2.434974e+02
  2.843214e+01    2.429705e+02
  2.845493e+01    2.423867e+02
  2.847771e+01    2.418178e+02
  2.850049e+01    2.412674e+02
  2.852327e+01    2.407227e+02
  2.854606e+01    2.401767e+02
  2.856884e+01    2.395781e+02
  2.859162e+01    2.390288e+02
  2.861440e+01    2.384786e+02
  2.863719e+01    2.379381e+02
  2.865997e+01    2.373699e+02
  2.868275e+01    2.368147e+02
  2.870554e+01    2.362573e+02
  2.872832e+01    2.357183e+02
  2.875110e+01    2.351589e+02
  2.877388e+01    2.345778e+02
  2.879667e+01    2.339701e+02
  2.881945e+01    2.334774e+02
  2.884223e+01    2.328743e+02
  2.886502e+01    2.323154e+02
  2.888780e+01    2.317309e+02
  2.891058e+01    2.311699e+02
  2.893336e+01    2.306315e+02
  2.895615e+01    2.300618e+02
  2.897893e+01    2.295557e+02
  2.900171e+01    2.289875e+02
  2.902450e+01    2.284401e+02
  2.904728e+01    2.279049e+02
  2.907006e+01    2.273359e+02
  2.909284e+01    2.267999e+02
  2.911563e+01    2.262409e+02
  2.913841e+01    2.256284e+02
  2.916119e+01    2.250894e+02
  2.918397e+01    2.245432e+02
  2.920676e+01    2.239663e+02
  2.922954e+01    2.233928e+02
  2.925232e+01    2.228268e+02
  2.927511e+01    2.222865e+02
  2.929789e+01    2.217138e+02
  2.932067e+01    2.211290e+02
  2.934345e+01    2.206977e+02
  2.936624e+01    2.200721e+02
  2.938902e+01    2.195444e+02
  2.941180e+01    2.190138e+02
  2.943459e+01    2.184572e+02
  2.945737e+01    2.179563e+02
  2.948015e+01    2.173586e+02
  2.950293e+01    2.167799e+02
  2.952572e+01    2.163333e+02
  2.954850e+01    2.157433e+02
  2.957128e+01    2.151816e+02
  2.959407e+01    2.146520e+02
  2.961685e+01    2.141260e+02
  2.963963e+01    2.136084e+02
  2.966241e+01    2.130865e+02
  2.968520e+01    2.125878e+02
  2.970798e+01    2.120371e+02
  2.973076e+01    2.114940e+02
  2.975354e+01    2.109463e+02
  2.977633e+01    2.103186e+02
  2.979911e+01    2.098556e+02
  2.982189e+01    2.093744e+02
  2.984468e+01    2.088244e+02
  2.986746e+01    2.082863e+02
  2.989024e+01    2.077005e+02
  2.991302e+01    2.071989e+02
  2.993581e+01    2.066832e+02
  2.995859e+01    2.061680e+02
  2.998137e+01    2.056564e+02
  3.000416e+01    2.050961e+02
  3.002694e+01    2.045641e+02
  3.004972e+01    2.040710e+02
  3.007250e+01    2.035293e+02
  3.009529e+01    2.029940e+02
  3.011807e+01    2.024724e+02
  3.014085e+01    2.018720e+02
  3.016363e+01    2.013649e+02
  3.018642e+01    2.009569e+02
  3.020920e+01    2.004357e+02
  3.023198e+01    1.998907e+02
  3.025477e+01    1.994409e+02
  3.027755e+01    1.988593e+02
  3.030033e+01    1.983698e+02
  3.032311e+01    1.979183e+02
  3.034590e+01    1.974557e+02
  3.036868e+01    1.969408e+02
  3.039146e+01    1.964289e+02
  3.041425e+01    1.959278e+02
  3.043703e+01    1.955286e+02
  3.045981e+01    1.949074e+02
  3.048259e+01    1.943408e+02
  3.050538e+01    1.938363e+02
  3.052816e+01    1.934536e+02
  3.055094e+01    1.929106e+02
  3.057373e+01    1.924347e+02
  3.059651e+01    1.919286e+02
  3.061929e+01    1.914451e+02
  3.064207e+01    1.908529e+02
  3.066486e+01    1.903883e+02
  3.068764e+01    1.900376e+02
  3.071042e+01    1.894813e+02
  3.073320e+01    1.889894e+02
  3.075599e+01    1.884928e+02
  3.077877e+01    1.878869e+02
  3.080155e+01    1.874294e+02
  3.082434e+01    1.868062e+02
  3.084712e+01    1.863052e+02
  3.086990e+01    1.858967e+02
  3.089268e+01    1.853976e+02
  3.091547e+01    1.848606e+02
  3.093825e+01    1.844720e+02
  3.096103e+01    1.839189e+02
  3.098382e+01    1.835298e+02
  3.100660e+01    1.831985e+02
  3.102938e+01    1.826396e+02
  3.105216e+01    1.821075e+02
  3.107495e+01    1.816076e+02
  3.109773e+01    1.811684e+02
  3.112051e+01    1.806671e+02
  3.114330e+01    1.799888e+02
  3.116608e+01    1.795230e+02
  3.118886e+01    1.790948e+02
  3.121164e+01    1.785979e+02
  3.123443e+01    1.781355e+02
  3.125721e+01    1.777066e+02
  3.127999e+01    1.771144e+02
  3.130277e+01    1.767410e+02
  3.132556e+01    1.761684e+02
  3.134834e+01    1.758574e+02
  3.137112e+01    1.753764e+02
  3.139391e+01    1.747908e+02
  3.141669e+01    1.744049e+02
  3.143947e+01    1.738774e+02
  3.146225e+01    1.735337e+02
  3.148504e+01    1.729725e+02
  3.150782e+01    1.724378e+02
  3.153060e+01    1.719763e+02
  3.155339e+01    1.716989e+02
  3.157617e+01    1.710409e+02
  3.159895e+01    1.706303e+02
  3.162173e+01    1.701408e+02
  3.164452e+01    1.696613e+02
  3.166730e+01    1.692832e+02
  3.169008e+01    1.687732e+02
  3.171286e+01    1.682977e+02
  3.173565e+01    1.678635e+02
  3.175843e+01    1.673465e+02
  3.178121e+01    1.667815e+02
  3.180400e+01    1.663111e+02
  3.182678e+01    1.657563e+02
  3.184956e+01    1.652835e+02
  3.187234e+01    1.649438e+02
  3.189513e+01    1.644560e+02
  3.191791e+01    1.639928e+02
  3.194069e+01    1.635057e+02
  3.196348e+01    1.629098e+02
  3.198626e+01    1.624405e+02
  3.200904e+01    1.620548e+02
  3.203182e+01    1.616753e+02
  3.205461e+01    1.611257e+02
  3.207739e+01    1.606676e+02
  3.210017e+01    1.601033e+02
  3.212296e+01    1.595596e+02
  3.214574e+01    1.591068e+02
  3.216852e+01    1.586826e+02
  3.219130e+01    1.581922e+02
  3.221409e+01    1.576447e+02
  3.223687e+01    1.572624e+02
  3.225965e+01    1.565862e+02
  3.228243e+01    1.562017e+02
  3.230522e+01    1.556410e+02
  3.232800e+01    1.551493e+02
  3.235078e+01    1.546406e+02
  3.237357e+01    1.541046e+02
  3.239635e+01    1.537112e+02
  3.241913e+01    1.531525e+02
  3.244191e+01    1.528161e+02
  3.246470e+01    1.521090e+02
  3.248748e+01    1.515448e+02
  3.251026e+01    1.510049e+02
  3.253305e+01    1.505391e+02
  3.255583e+01    1.499373e+02
  3.257861e+01    1.494792e+02
  3.260139e+01    1.489203e+02
  3.262418e+01    1.484801e+02
  3.264696e+01    1.477635e+02
  3.266974e+01    1.471536e+02
  3.269253e+01    1.467013e+02
  3.271531e+01    1.462467e+02
  3.273809e+01    1.456474e+02
  3.276087e+01    1.451481e+02
  3.278366e+01    1.445277e+02
  3.280644e+01    1.439443e+02
  3.282922e+01    1.435346e+02
  3.285200e+01    1.428811e+02
  3.287479e+01    1.423591e+02
  3.289757e+01    1.418592e+02
  3.292035e+01    1.413281e+02
  3.294314e+01    1.407157e+02
  3.296592e+01    1.401422e+02
  3.298870e+01    1.395154e+02
  3.301148e+01    1.389910e+02
  3.303427e+01    1.384375e+02
  3.305705e+01    1.379777e+02
  3.307983e+01    1.373085e+02
  3.310262e+01    1.367116e+02
  3.312540e+01    1.364065e+02
  3.314818e+01    1.357365e+02
  3.317096e+01    1.353457e+02
  3.319375e+01    1.349774e+02
  3.321653e+01    1.340793e+02
  3.323931e+01    1.338749e+02
  3.326209e+01    1.332075e+02
  3.328488e+01    1.327699e+02
  3.330766e+01    1.325388e+02
  3.333044e+01    1.315454e+02
  3.335323e+01    1.307883e+02
  3.337601e+01    1.309116e+02
  3.339879e+01    1.305667e+02
  3.342157e+01    1.305962e+02
  3.344436e+01    1.304473e+02
  3.346714e+01    1.296902e+02
  3.348992e+01    1.281079e+02
  3.351271e+01    1.299933e+02
  3.353549e+01    0.000000e+00
  3.355827e+01    0.000000e+00
  3.358105e+01    0.000000e+00
  3.360384e+01    0.000000e+00
  3.362662e+01    0.000000e+00
  3.364940e+01    0.000000e+00
  3.367219e+01    0.000000e+00
  3.369497e+01    0.000000e+00
  3.371775e+01    0.000000e+00
