# == pyFAI calibration ==
# Distance Sample to Detector: 0.21311058206280517 m
# PONI: 2.037e-01, 1.993e-01 m
# Rotations: -0.005459 0.000134 0.000000 rad
# 
# == Fit2d calibration ==
# Distance Sample-beamCenter: 213.114 mm
# Center: x=1002.134, y=1018.730 pix
# Tilt: 0.313 deg  TiltPlanRot: 1.411 deg
# 
# Detector Perkin detector	 PixelSize= 2.000e-04, 2.000e-04 m
#    Detector has a mask: False 
#    Detector has a dark current: False 
#    detector has a flat field: False 
# 
# Wavelength: 1.675e-11 m
# Mask applied: provided
# Dark current applied: False
# Flat field applied: False
# Polarization factor: None
# Normalization factor: 1.0
# --> data/chi_bkgsub_false/C_Tatania2-38.5-average.chi
#        q_A^-1             I 
  2.199784e-02    1.266833e+02
  4.478064e-02    1.276381e+02
  6.756343e-02    1.278556e+02
  9.034623e-02    1.285416e+02
  1.131290e-01    1.307601e+02
  1.359118e-01    1.329941e+02
  1.586946e-01    1.365797e+02
  1.814774e-01    1.413820e+02
  2.042602e-01    1.466309e+02
  2.270430e-01    1.577381e+02
  2.498258e-01    1.781541e+02
  2.726086e-01    2.146041e+02
  2.953914e-01    4.068222e+02
  3.181742e-01    6.466472e+02
  3.409570e-01    1.041676e+03
  3.637398e-01    1.470272e+03
  3.865226e-01    1.194043e+03
  4.093054e-01    8.847922e+02
  4.320881e-01    7.132400e+02
  4.548709e-01    6.360870e+02
  4.776537e-01    6.834667e+02
  5.004365e-01    7.302596e+02
  5.232193e-01    7.666041e+02
  5.460021e-01    8.150839e+02
  5.687849e-01    8.784526e+02
  5.915677e-01    9.393712e+02
  6.143505e-01    1.033471e+03
  6.371333e-01    1.168554e+03
  6.599161e-01    1.288646e+03
  6.826989e-01    1.409232e+03
  7.054817e-01    1.517302e+03
  7.282645e-01    1.602549e+03
  7.510473e-01    1.668706e+03
  7.738301e-01    1.716338e+03
  7.966129e-01    1.759954e+03
  8.193956e-01    1.804865e+03
  8.421784e-01    1.849098e+03
  8.649612e-01    1.897076e+03
  8.877440e-01    1.950237e+03
  9.105268e-01    2.003593e+03
  9.333096e-01    2.061765e+03
  9.560924e-01    2.124625e+03
  9.788752e-01    2.189660e+03
  1.001658e+00    2.261444e+03
  1.024441e+00    2.336784e+03
  1.047224e+00    2.416766e+03
  1.070006e+00    2.504452e+03
  1.092789e+00    2.596257e+03
  1.115572e+00    2.693060e+03
  1.138355e+00    2.799803e+03
  1.161138e+00    2.910510e+03
  1.183920e+00    3.027913e+03
  1.206703e+00    3.155344e+03
  1.229486e+00    3.283706e+03
  1.252269e+00    3.422341e+03
  1.275052e+00    3.570358e+03
  1.297834e+00    3.711876e+03
  1.320617e+00    3.864503e+03
  1.343400e+00    4.023519e+03
  1.366183e+00    4.179668e+03
  1.388966e+00    4.342189e+03
  1.411748e+00    4.503714e+03
  1.434531e+00    4.663394e+03
  1.457314e+00    4.821443e+03
  1.480097e+00    4.965279e+03
  1.502879e+00    5.104128e+03
  1.525662e+00    5.235575e+03
  1.548445e+00    5.350343e+03
  1.571228e+00    5.451304e+03
  1.594011e+00    5.538069e+03
  1.616793e+00    5.612882e+03
  1.639576e+00    5.666233e+03
  1.662359e+00    5.702283e+03
  1.685142e+00    5.731479e+03
  1.707925e+00    5.740709e+03
  1.730707e+00    5.737406e+03
  1.753490e+00    5.728200e+03
  1.776273e+00    5.704992e+03
  1.799056e+00    5.665086e+03
  1.821839e+00    5.606774e+03
  1.844621e+00    5.546026e+03
  1.867404e+00    5.490426e+03
  1.890187e+00    5.423416e+03
  1.912970e+00    5.358455e+03
  1.935753e+00    5.298615e+03
  1.958535e+00    5.239824e+03
  1.981318e+00    5.180469e+03
  2.004101e+00    5.121632e+03
  2.026884e+00    5.066389e+03
  2.049667e+00    5.006737e+03
  2.072449e+00    4.940519e+03
  2.095232e+00    4.880259e+03
  2.118015e+00    4.820661e+03
  2.140798e+00    4.764930e+03
  2.163581e+00    4.691693e+03
  2.186363e+00    4.601462e+03
  2.209146e+00    4.508343e+03
  2.231929e+00    4.407239e+03
  2.254712e+00    4.306792e+03
  2.277494e+00    4.210316e+03
  2.300277e+00    4.109708e+03
  2.323060e+00    4.005714e+03
  2.345843e+00    3.904152e+03
  2.368626e+00    3.801086e+03
  2.391408e+00    3.700714e+03
  2.414191e+00    3.600122e+03
  2.436974e+00    3.504783e+03
  2.459757e+00    3.419289e+03
  2.482540e+00    3.332386e+03
  2.505322e+00    3.239351e+03
  2.528105e+00    3.145170e+03
  2.550888e+00    3.056995e+03
  2.573671e+00    2.977794e+03
  2.596454e+00    2.909071e+03
  2.619236e+00    2.852245e+03
  2.642019e+00    2.801947e+03
  2.664802e+00    2.755074e+03
  2.687585e+00    2.717753e+03
  2.710368e+00    2.689159e+03
  2.733150e+00    2.672679e+03
  2.755933e+00    2.661745e+03
  2.778716e+00    2.658039e+03
  2.801499e+00    2.662948e+03
  2.824282e+00    2.668856e+03
  2.847064e+00    2.675612e+03
  2.869847e+00    2.684226e+03
  2.892630e+00    2.692978e+03
  2.915413e+00    2.698533e+03
  2.938196e+00    2.701476e+03
  2.960978e+00    2.700866e+03
  2.983761e+00    2.698216e+03
  3.006544e+00    2.693851e+03
  3.029327e+00    2.688010e+03
  3.052110e+00    2.680289e+03
  3.074892e+00    2.668369e+03
  3.097675e+00    2.654560e+03
  3.120458e+00    2.641416e+03
  3.143241e+00    2.628585e+03
  3.166023e+00    2.615521e+03
  3.188806e+00    2.601481e+03
  3.211589e+00    2.586749e+03
  3.234372e+00    2.572839e+03
  3.257155e+00    2.559788e+03
  3.279937e+00    2.548369e+03
  3.302720e+00    2.536116e+03
  3.325503e+00    2.523070e+03
  3.348286e+00    2.510240e+03
  3.371069e+00    2.498135e+03
  3.393851e+00    2.488415e+03
  3.416634e+00    2.480521e+03
  3.439417e+00    2.474814e+03
  3.462200e+00    2.475231e+03
  3.484983e+00    2.480200e+03
  3.507765e+00    2.484114e+03
  3.530548e+00    2.486842e+03
  3.553331e+00    2.485264e+03
  3.576114e+00    2.481732e+03
  3.598897e+00    2.480306e+03
  3.621679e+00    2.483865e+03
  3.644462e+00    2.493597e+03
  3.667245e+00    2.502739e+03
  3.690028e+00    2.511245e+03
  3.712811e+00    2.520689e+03
  3.735593e+00    2.531279e+03
  3.758376e+00    2.541676e+03
  3.781159e+00    2.551293e+03
  3.803942e+00    2.561717e+03
  3.826725e+00    2.572319e+03
  3.849507e+00    2.582159e+03
  3.872290e+00    2.592549e+03
  3.895073e+00    2.606835e+03
  3.917856e+00    2.617795e+03
  3.940638e+00    2.625075e+03
  3.963421e+00    2.635917e+03
  3.986204e+00    2.647461e+03
  4.008987e+00    2.658103e+03
  4.031770e+00    2.668473e+03
  4.054552e+00    2.681293e+03
  4.077335e+00    2.697140e+03
  4.100118e+00    2.706216e+03
  4.122901e+00    2.717412e+03
  4.145684e+00    2.726108e+03
  4.168466e+00    2.729996e+03
  4.191249e+00    2.730297e+03
  4.214032e+00    2.730769e+03
  4.236815e+00    2.734500e+03
  4.259598e+00    2.733104e+03
  4.282380e+00    2.724585e+03
  4.305163e+00    2.719781e+03
  4.327946e+00    2.714062e+03
  4.350729e+00    2.707205e+03
  4.373512e+00    2.699356e+03
  4.396294e+00    2.691030e+03
  4.419077e+00    2.681388e+03
  4.441860e+00    2.669176e+03
  4.464643e+00    2.658508e+03
  4.487426e+00    2.654531e+03
  4.510208e+00    2.637945e+03
  4.532991e+00    2.618285e+03
  4.555774e+00    2.603119e+03
  4.578557e+00    2.587653e+03
  4.601340e+00    2.570862e+03
  4.624122e+00    2.552887e+03
  4.646905e+00    2.538166e+03
  4.669688e+00    2.525609e+03
  4.692471e+00    2.500301e+03
  4.715253e+00    2.480170e+03
  4.738036e+00    2.462512e+03
  4.760819e+00    2.445368e+03
  4.783602e+00    2.428063e+03
  4.806385e+00    2.411688e+03
  4.829167e+00    2.401330e+03
  4.851950e+00    2.385627e+03
  4.874733e+00    2.367429e+03
  4.897516e+00    2.355543e+03
  4.920299e+00    2.344822e+03
  4.943081e+00    2.334929e+03
  4.965864e+00    2.324045e+03
  4.988647e+00    2.313314e+03
  5.011430e+00    2.302863e+03
  5.034213e+00    2.285202e+03
  5.056995e+00    2.272495e+03
  5.079778e+00    2.265927e+03
  5.102561e+00    2.248906e+03
  5.125344e+00    2.233547e+03
  5.148127e+00    2.220720e+03
  5.170909e+00    2.207574e+03
  5.193692e+00    2.193091e+03
  5.216475e+00    2.178962e+03
  5.239258e+00    2.167662e+03
  5.262041e+00    2.153302e+03
  5.284823e+00    2.132257e+03
  5.307606e+00    2.115359e+03
  5.330389e+00    2.098643e+03
  5.353172e+00    2.080762e+03
  5.375955e+00    2.061312e+03
  5.398737e+00    2.041712e+03
  5.421520e+00    2.024328e+03
  5.444303e+00    1.999198e+03
  5.467086e+00    1.974833e+03
  5.489869e+00    1.952220e+03
  5.512651e+00    1.930082e+03
  5.535434e+00    1.908711e+03
  5.558217e+00    1.888440e+03
  5.581000e+00    1.871105e+03
  5.603782e+00    1.851606e+03
  5.626565e+00    1.829013e+03
  5.649348e+00    1.810909e+03
  5.672131e+00    1.794073e+03
  5.694914e+00    1.773185e+03
  5.717696e+00    1.756198e+03
  5.740479e+00    1.741484e+03
  5.763262e+00    1.727526e+03
  5.786045e+00    1.714244e+03
  5.808828e+00    1.702613e+03
  5.831610e+00    1.693698e+03
  5.854393e+00    1.680856e+03
  5.877176e+00    1.668188e+03
  5.899959e+00    1.658034e+03
  5.922742e+00    1.648809e+03
  5.945524e+00    1.639767e+03
  5.968307e+00    1.631246e+03
  5.991090e+00    1.625485e+03
  6.013873e+00    1.618835e+03
  6.036656e+00    1.608065e+03
  6.059438e+00    1.602125e+03
  6.082221e+00    1.597209e+03
  6.105004e+00    1.587112e+03
  6.127787e+00    1.579370e+03
  6.150570e+00    1.573012e+03
  6.173352e+00    1.567594e+03
  6.196135e+00    1.559304e+03
  6.218918e+00    1.551437e+03
  6.241701e+00    1.545927e+03
  6.264484e+00    1.537599e+03
  6.287266e+00    1.529304e+03
  6.310049e+00    1.522416e+03
  6.332832e+00    1.515692e+03
  6.355615e+00    1.508474e+03
  6.378397e+00    1.501296e+03
  6.401180e+00    1.495356e+03
  6.423963e+00    1.489171e+03
  6.446746e+00    1.480389e+03
  6.469529e+00    1.473179e+03
  6.492311e+00    1.466030e+03
  6.515094e+00    1.458463e+03
  6.537877e+00    1.450898e+03
  6.560660e+00    1.443426e+03
  6.583443e+00    1.436961e+03
  6.606225e+00    1.428026e+03
  6.629008e+00    1.419460e+03
  6.651791e+00    1.413250e+03
  6.674574e+00    1.405354e+03
  6.697357e+00    1.397230e+03
  6.720139e+00    1.390290e+03
  6.742922e+00    1.384002e+03
  6.765705e+00    1.376900e+03
  6.788488e+00    1.369586e+03
  6.811271e+00    1.363153e+03
  6.834053e+00    1.356555e+03
  6.856836e+00    1.348954e+03
  6.879619e+00    1.342070e+03
  6.902402e+00    1.335480e+03
  6.925185e+00    1.329105e+03
  6.947967e+00    1.322821e+03
  6.970750e+00    1.317383e+03
  6.993533e+00    1.312707e+03
  7.016316e+00    1.307100e+03
  7.039099e+00    1.301678e+03
  7.061881e+00    1.296636e+03
  7.084664e+00    1.291793e+03
  7.107447e+00    1.287318e+03
  7.130230e+00    1.283088e+03
  7.153013e+00    1.279348e+03
  7.175795e+00    1.275889e+03
  7.198578e+00    1.272563e+03
  7.221361e+00    1.269760e+03
  7.244144e+00    1.267484e+03
  7.266926e+00    1.265560e+03
  7.289709e+00    1.263953e+03
  7.312492e+00    1.262854e+03
  7.335275e+00    1.262197e+03
  7.358058e+00    1.262039e+03
  7.380840e+00    1.261848e+03
  7.403623e+00    1.261485e+03
  7.426406e+00    1.261223e+03
  7.449189e+00    1.261660e+03
  7.471972e+00    1.262591e+03
  7.494754e+00    1.263691e+03
  7.517537e+00    1.264918e+03
  7.540320e+00    1.266505e+03
  7.563103e+00    1.268078e+03
  7.585886e+00    1.269746e+03
  7.608668e+00    1.271413e+03
  7.631451e+00    1.273438e+03
  7.654234e+00    1.275572e+03
  7.677017e+00    1.277322e+03
  7.699800e+00    1.279012e+03
  7.722582e+00    1.280659e+03
  7.745365e+00    1.281986e+03
  7.768148e+00    1.283372e+03
  7.790931e+00    1.284930e+03
  7.813714e+00    1.286113e+03
  7.836496e+00    1.287338e+03
  7.859279e+00    1.288598e+03
  7.882062e+00    1.289250e+03
  7.904845e+00    1.289362e+03
  7.927628e+00    1.288719e+03
  7.950410e+00    1.288075e+03
  7.973193e+00    1.287327e+03
  7.995976e+00    1.286039e+03
  8.018759e+00    1.284517e+03
  8.041541e+00    1.282829e+03
  8.064324e+00    1.280932e+03
  8.087107e+00    1.278382e+03
  8.109890e+00    1.275826e+03
  8.132673e+00    1.273525e+03
  8.155455e+00    1.270304e+03
  8.178238e+00    1.266922e+03
  8.201021e+00    1.263804e+03
  8.223804e+00    1.260499e+03
  8.246587e+00    1.257239e+03
  8.269369e+00    1.254085e+03
  8.292152e+00    1.250747e+03
  8.314935e+00    1.247022e+03
  8.337718e+00    1.243113e+03
  8.360501e+00    1.239591e+03
  8.383283e+00    1.236215e+03
  8.406066e+00    1.232780e+03
  8.428849e+00    1.229161e+03
  8.451632e+00    1.225251e+03
  8.474415e+00    1.221340e+03
  8.497197e+00    1.217319e+03
  8.519980e+00    1.213207e+03
  8.542763e+00    1.209419e+03
  8.565546e+00    1.205907e+03
  8.588329e+00    1.202415e+03
  8.611111e+00    1.199197e+03
  8.633894e+00    1.195625e+03
  8.656677e+00    1.192054e+03
  8.679460e+00    1.188513e+03
  8.702243e+00    1.184976e+03
  8.725025e+00    1.181911e+03
  8.747808e+00    1.178809e+03
  8.770591e+00    1.175658e+03
  8.793374e+00    1.172291e+03
  8.816156e+00    1.168633e+03
  8.838939e+00    1.164977e+03
  8.861722e+00    1.161242e+03
  8.884505e+00    1.157653e+03
  8.907288e+00    1.153999e+03
  8.930070e+00    1.150148e+03
  8.952853e+00    1.146449e+03
  8.975636e+00    1.142620e+03
  8.998419e+00    1.138637e+03
  9.021202e+00    1.134640e+03
  9.043984e+00    1.130789e+03
  9.066767e+00    1.126802e+03
  9.089550e+00    1.122683e+03
  9.112333e+00    1.118516e+03
  9.135116e+00    1.114264e+03
  9.157898e+00    1.109727e+03
  9.180681e+00    1.105071e+03
  9.203464e+00    1.100385e+03
  9.226247e+00    1.095808e+03
  9.249030e+00    1.090909e+03
  9.271812e+00    1.086382e+03
  9.294595e+00    1.081854e+03
  9.317378e+00    1.077258e+03
  9.340161e+00    1.072741e+03
  9.362944e+00    1.067997e+03
  9.385726e+00    1.063163e+03
  9.408509e+00    1.058388e+03
  9.431292e+00    1.053827e+03
  9.454075e+00    1.049240e+03
  9.476858e+00    1.044841e+03
  9.499640e+00    1.040444e+03
  9.522423e+00    1.035841e+03
  9.545206e+00    1.030955e+03
  9.567989e+00    1.026330e+03
  9.590772e+00    1.021801e+03
  9.613554e+00    1.017443e+03
  9.636337e+00    1.013040e+03
  9.659120e+00    1.008837e+03
  9.681903e+00    1.004847e+03
  9.704685e+00    1.000820e+03
  9.727468e+00    9.969395e+02
  9.750251e+00    9.933138e+02
  9.773034e+00    9.899897e+02
  9.795817e+00    9.863536e+02
  9.818599e+00    9.827401e+02
  9.841382e+00    9.791475e+02
  9.864165e+00    9.757623e+02
  9.886948e+00    9.726760e+02
  9.909731e+00    9.696744e+02
  9.932513e+00    9.668141e+02
  9.955296e+00    9.640426e+02
  9.978079e+00    9.613489e+02
  1.000086e+01    9.588760e+02
  1.002364e+01    9.564150e+02
  1.004643e+01    9.540434e+02
  1.006921e+01    9.516960e+02
  1.009199e+01    9.493982e+02
  1.011478e+01    9.471897e+02
  1.013756e+01    9.449655e+02
  1.016034e+01    9.427662e+02
  1.018312e+01    9.406265e+02
  1.020591e+01    9.384577e+02
  1.022869e+01    9.364922e+02
  1.025147e+01    9.346748e+02
  1.027426e+01    9.328093e+02
  1.029704e+01    9.311030e+02
  1.031982e+01    9.295086e+02
  1.034260e+01    9.279184e+02
  1.036539e+01    9.263549e+02
  1.038817e+01    9.247888e+02
  1.041095e+01    9.231583e+02
  1.043373e+01    9.215675e+02
  1.045652e+01    9.200680e+02
  1.047930e+01    9.183464e+02
  1.050208e+01    9.169170e+02
  1.052487e+01    9.154333e+02
  1.054765e+01    9.140369e+02
  1.057043e+01    9.126647e+02
  1.059321e+01    9.113092e+02
  1.061600e+01    9.097543e+02
  1.063878e+01    9.081569e+02
  1.066156e+01    9.067402e+02
  1.068435e+01    9.052441e+02
  1.070713e+01    9.037344e+02
  1.072991e+01    9.019724e+02
  1.075269e+01    9.004274e+02
  1.077548e+01    8.987775e+02
  1.079826e+01    8.970071e+02
  1.082104e+01    8.952636e+02
  1.084383e+01    8.935997e+02
  1.086661e+01    8.919695e+02
  1.088939e+01    8.904432e+02
  1.091217e+01    8.889310e+02
  1.093496e+01    8.873062e+02
  1.095774e+01    8.856804e+02
  1.098052e+01    8.840383e+02
  1.100330e+01    8.825087e+02
  1.102609e+01    8.808778e+02
  1.104887e+01    8.791914e+02
  1.107165e+01    8.776870e+02
  1.109444e+01    8.760707e+02
  1.111722e+01    8.743860e+02
  1.114000e+01    8.727398e+02
  1.116278e+01    8.709565e+02
  1.118557e+01    8.692048e+02
  1.120835e+01    8.675787e+02
  1.123113e+01    8.660040e+02
  1.125392e+01    8.644222e+02
  1.127670e+01    8.629357e+02
  1.129948e+01    8.614254e+02
  1.132226e+01    8.599697e+02
  1.134505e+01    8.585245e+02
  1.136783e+01    8.571251e+02
  1.139061e+01    8.558455e+02
  1.141340e+01    8.544742e+02
  1.143618e+01    8.532641e+02
  1.145896e+01    8.521838e+02
  1.148174e+01    8.510815e+02
  1.150453e+01    8.501194e+02
  1.152731e+01    8.490851e+02
  1.155009e+01    8.481100e+02
  1.157287e+01    8.471573e+02
  1.159566e+01    8.461839e+02
  1.161844e+01    8.452820e+02
  1.164122e+01    8.442422e+02
  1.166401e+01    8.435099e+02
  1.168679e+01    8.427739e+02
  1.170957e+01    8.419375e+02
  1.173235e+01    8.412551e+02
  1.175514e+01    8.405926e+02
  1.177792e+01    8.399726e+02
  1.180070e+01    8.394949e+02
  1.182349e+01    8.389644e+02
  1.184627e+01    8.382864e+02
  1.186905e+01    8.377810e+02
  1.189183e+01    8.373864e+02
  1.191462e+01    8.370426e+02
  1.193740e+01    8.367067e+02
  1.196018e+01    8.363641e+02
  1.198296e+01    8.360645e+02
  1.200575e+01    8.357433e+02
  1.202853e+01    8.353926e+02
  1.205131e+01    8.350166e+02
  1.207410e+01    8.347559e+02
  1.209688e+01    8.343268e+02
  1.211966e+01    8.338240e+02
  1.214244e+01    8.334115e+02
  1.216523e+01    8.329913e+02
  1.218801e+01    8.324854e+02
  1.221079e+01    8.320710e+02
  1.223358e+01    8.314703e+02
  1.225636e+01    8.307167e+02
  1.227914e+01    8.299577e+02
  1.230192e+01    8.292875e+02
  1.232471e+01    8.285784e+02
  1.234749e+01    8.277375e+02
  1.237027e+01    8.267882e+02
  1.239306e+01    8.259701e+02
  1.241584e+01    8.249768e+02
  1.243862e+01    8.239338e+02
  1.246140e+01    8.229271e+02
  1.248419e+01    8.217475e+02
  1.250697e+01    8.205645e+02
  1.252975e+01    8.191912e+02
  1.255253e+01    8.177840e+02
  1.257532e+01    8.163176e+02
  1.259810e+01    8.146852e+02
  1.262088e+01    8.131418e+02
  1.264367e+01    8.116140e+02
  1.266645e+01    8.100016e+02
  1.268923e+01    8.081460e+02
  1.271201e+01    8.062794e+02
  1.273480e+01    8.044007e+02
  1.275758e+01    8.026224e+02
  1.278036e+01    8.008854e+02
  1.280315e+01    7.991013e+02
  1.282593e+01    7.973278e+02
  1.284871e+01    7.954020e+02
  1.287149e+01    7.935544e+02
  1.289428e+01    7.916758e+02
  1.291706e+01    7.897936e+02
  1.293984e+01    7.878549e+02
  1.296263e+01    7.859786e+02
  1.298541e+01    7.839492e+02
  1.300819e+01    7.819767e+02
  1.303097e+01    7.800202e+02
  1.305376e+01    7.780554e+02
  1.307654e+01    7.760287e+02
  1.309932e+01    7.739962e+02
  1.312210e+01    7.721035e+02
  1.314489e+01    7.701678e+02
  1.316767e+01    7.682136e+02
  1.319045e+01    7.663373e+02
  1.321324e+01    7.645699e+02
  1.323602e+01    7.627050e+02
  1.325880e+01    7.608777e+02
  1.328158e+01    7.590599e+02
  1.330437e+01    7.573298e+02
  1.332715e+01    7.556404e+02
  1.334993e+01    7.538532e+02
  1.337272e+01    7.520804e+02
  1.339550e+01    7.504066e+02
  1.341828e+01    7.487277e+02
  1.344106e+01    7.471279e+02
  1.346385e+01    7.455829e+02
  1.348663e+01    7.440300e+02
  1.350941e+01    7.424495e+02
  1.353219e+01    7.408384e+02
  1.355498e+01    7.391811e+02
  1.357776e+01    7.373754e+02
  1.360054e+01    7.356995e+02
  1.362333e+01    7.341125e+02
  1.364611e+01    7.326180e+02
  1.366889e+01    7.311661e+02
  1.369167e+01    7.296617e+02
  1.371446e+01    7.282509e+02
  1.373724e+01    7.268549e+02
  1.376002e+01    7.255809e+02
  1.378281e+01    7.242351e+02
  1.380559e+01    7.228871e+02
  1.382837e+01    7.215926e+02
  1.385115e+01    7.205163e+02
  1.387394e+01    7.193708e+02
  1.389672e+01    7.181089e+02
  1.391950e+01    7.170083e+02
  1.394229e+01    7.158672e+02
  1.396507e+01    7.146608e+02
  1.398785e+01    7.134287e+02
  1.401063e+01    7.121900e+02
  1.403342e+01    7.110643e+02
  1.405620e+01    7.100358e+02
  1.407898e+01    7.089283e+02
  1.410176e+01    7.079165e+02
  1.412455e+01    7.069321e+02
  1.414733e+01    7.058497e+02
  1.417011e+01    7.048408e+02
  1.419290e+01    7.038171e+02
  1.421568e+01    7.028646e+02
  1.423846e+01    7.020281e+02
  1.426124e+01    7.010078e+02
  1.428403e+01    6.999886e+02
  1.430681e+01    6.990422e+02
  1.432959e+01    6.979796e+02
  1.435238e+01    6.970214e+02
  1.437516e+01    6.961348e+02
  1.439794e+01    6.951675e+02
  1.442072e+01    6.942598e+02
  1.444351e+01    6.934060e+02
  1.446629e+01    6.925208e+02
  1.448907e+01    6.916451e+02
  1.451186e+01    6.907910e+02
  1.453464e+01    6.899503e+02
  1.455742e+01    6.890519e+02
  1.458020e+01    6.882175e+02
  1.460299e+01    6.874661e+02
  1.462577e+01    6.867009e+02
  1.464855e+01    6.858465e+02
  1.467133e+01    6.850228e+02
  1.469412e+01    6.842012e+02
  1.471690e+01    6.833652e+02
  1.473968e+01    6.824229e+02
  1.476247e+01    6.816038e+02
  1.478525e+01    6.808152e+02
  1.480803e+01    6.800775e+02
  1.483081e+01    6.791606e+02
  1.485360e+01    6.783373e+02
  1.487638e+01    6.776011e+02
  1.489916e+01    6.768754e+02
  1.492195e+01    6.760304e+02
  1.494473e+01    6.752697e+02
  1.496751e+01    6.745259e+02
  1.499029e+01    6.737415e+02
  1.501308e+01    6.730570e+02
  1.503586e+01    6.725979e+02
  1.505864e+01    6.715950e+02
  1.508142e+01    6.707121e+02
  1.510421e+01    6.697399e+02
  1.512699e+01    6.688115e+02
  1.514977e+01    6.679869e+02
  1.517256e+01    6.672407e+02
  1.519534e+01    6.664464e+02
  1.521812e+01    6.656112e+02
  1.524090e+01    6.647175e+02
  1.526369e+01    6.638818e+02
  1.528647e+01    6.631367e+02
  1.530925e+01    6.622898e+02
  1.533204e+01    6.614157e+02
  1.535482e+01    6.605939e+02
  1.537760e+01    6.597689e+02
  1.540038e+01    6.589240e+02
  1.542317e+01    6.580744e+02
  1.544595e+01    6.572332e+02
  1.546873e+01    6.563442e+02
  1.549152e+01    6.554265e+02
  1.551430e+01    6.545779e+02
  1.553708e+01    6.537266e+02
  1.555986e+01    6.528489e+02
  1.558265e+01    6.519326e+02
  1.560543e+01    6.510258e+02
  1.562821e+01    6.502493e+02
  1.565099e+01    6.494415e+02
  1.567378e+01    6.485992e+02
  1.569656e+01    6.477637e+02
  1.571934e+01    6.469095e+02
  1.574213e+01    6.460796e+02
  1.576491e+01    6.452223e+02
  1.578769e+01    6.443115e+02
  1.581047e+01    6.434453e+02
  1.583326e+01    6.425383e+02
  1.585604e+01    6.416645e+02
  1.587882e+01    6.407900e+02
  1.590161e+01    6.399967e+02
  1.592439e+01    6.391685e+02
  1.594717e+01    6.384260e+02
  1.596995e+01    6.375844e+02
  1.599274e+01    6.368024e+02
  1.601552e+01    6.360551e+02
  1.603830e+01    6.353066e+02
  1.606109e+01    6.344982e+02
  1.608387e+01    6.337315e+02
  1.610665e+01    6.330006e+02
  1.612943e+01    6.323033e+02
  1.615222e+01    6.315900e+02
  1.617500e+01    6.307791e+02
  1.619778e+01    6.300761e+02
  1.622056e+01    6.293265e+02
  1.624335e+01    6.285260e+02
  1.626613e+01    6.278151e+02
  1.628891e+01    6.271140e+02
  1.631170e+01    6.263205e+02
  1.633448e+01    6.255580e+02
  1.635726e+01    6.249021e+02
  1.638004e+01    6.241591e+02
  1.640283e+01    6.233580e+02
  1.642561e+01    6.225679e+02
  1.644839e+01    6.218534e+02
  1.647118e+01    6.211378e+02
  1.649396e+01    6.203604e+02
  1.651674e+01    6.195952e+02
  1.653952e+01    6.188483e+02
  1.656231e+01    6.181091e+02
  1.658509e+01    6.172623e+02
  1.660787e+01    6.164856e+02
  1.663065e+01    6.157164e+02
  1.665344e+01    6.149619e+02
  1.667622e+01    6.142122e+02
  1.669900e+01    6.134538e+02
  1.672179e+01    6.126438e+02
  1.674457e+01    6.117286e+02
  1.676735e+01    6.109548e+02
  1.679013e+01    6.100137e+02
  1.681292e+01    6.090562e+02
  1.683570e+01    6.081210e+02
  1.685848e+01    6.072042e+02
  1.688127e+01    6.062693e+02
  1.690405e+01    6.053452e+02
  1.692683e+01    6.045626e+02
  1.694961e+01    6.035838e+02
  1.697240e+01    6.026598e+02
  1.699518e+01    6.017067e+02
  1.701796e+01    6.006905e+02
  1.704075e+01    5.996601e+02
  1.706353e+01    5.985937e+02
  1.708631e+01    5.976143e+02
  1.710909e+01    5.965956e+02
  1.713188e+01    5.955644e+02
  1.715466e+01    5.944976e+02
  1.717744e+01    5.934210e+02
  1.720022e+01    5.922991e+02
  1.722301e+01    5.912299e+02
  1.724579e+01    5.902150e+02
  1.726857e+01    5.891760e+02
  1.729136e+01    5.881547e+02
  1.731414e+01    5.871251e+02
  1.733692e+01    5.860071e+02
  1.735970e+01    5.848425e+02
  1.738249e+01    5.837332e+02
  1.740527e+01    5.827173e+02
  1.742805e+01    5.816365e+02
  1.745084e+01    5.805764e+02
  1.747362e+01    5.795666e+02
  1.749640e+01    5.784479e+02
  1.751918e+01    5.774085e+02
  1.754197e+01    5.762558e+02
  1.756475e+01    5.751839e+02
  1.758753e+01    5.741398e+02
  1.761032e+01    5.731135e+02
  1.763310e+01    5.720959e+02
  1.765588e+01    5.711194e+02
  1.767866e+01    5.701511e+02
  1.770145e+01    5.690778e+02
  1.772423e+01    5.680535e+02
  1.774701e+01    5.670453e+02
  1.776979e+01    5.661222e+02
  1.779258e+01    5.652065e+02
  1.781536e+01    5.642520e+02
  1.783814e+01    5.633076e+02
  1.786093e+01    5.623572e+02
  1.788371e+01    5.614255e+02
  1.790649e+01    5.604979e+02
  1.792927e+01    5.595931e+02
  1.795206e+01    5.586929e+02
  1.797484e+01    5.578118e+02
  1.799762e+01    5.569751e+02
  1.802041e+01    5.561099e+02
  1.804319e+01    5.552233e+02
  1.806597e+01    5.544170e+02
  1.808875e+01    5.536135e+02
  1.811154e+01    5.527432e+02
  1.813432e+01    5.518926e+02
  1.815710e+01    5.510950e+02
  1.817989e+01    5.502553e+02
  1.820267e+01    5.493695e+02
  1.822545e+01    5.486372e+02
  1.824823e+01    5.477782e+02
  1.827102e+01    5.469965e+02
  1.829380e+01    5.461669e+02
  1.831658e+01    5.453262e+02
  1.833936e+01    5.445494e+02
  1.836215e+01    5.437814e+02
  1.838493e+01    5.429998e+02
  1.840771e+01    5.422880e+02
  1.843050e+01    5.415396e+02
  1.845328e+01    5.408095e+02
  1.847606e+01    5.400445e+02
  1.849884e+01    5.393558e+02
  1.852163e+01    5.386221e+02
  1.854441e+01    5.378375e+02
  1.856719e+01    5.370469e+02
  1.858998e+01    5.363320e+02
  1.861276e+01    5.356163e+02
  1.863554e+01    5.349398e+02
  1.865832e+01    5.342568e+02
  1.868111e+01    5.335657e+02
  1.870389e+01    5.329030e+02
  1.872667e+01    5.322543e+02
  1.874945e+01    5.315355e+02
  1.877224e+01    5.308119e+02
  1.879502e+01    5.301172e+02
  1.881780e+01    5.294594e+02
  1.884059e+01    5.288951e+02
  1.886337e+01    5.282141e+02
  1.888615e+01    5.275156e+02
  1.890893e+01    5.268284e+02
  1.893172e+01    5.261357e+02
  1.895450e+01    5.254224e+02
  1.897728e+01    5.247188e+02
  1.900007e+01    5.240277e+02
  1.902285e+01    5.234095e+02
  1.904563e+01    5.226964e+02
  1.906841e+01    5.220444e+02
  1.909120e+01    5.214207e+02
  1.911398e+01    5.207651e+02
  1.913676e+01    5.200879e+02
  1.915955e+01    5.193968e+02
  1.918233e+01    5.187562e+02
  1.920511e+01    5.181163e+02
  1.922789e+01    5.173597e+02
  1.925068e+01    5.166119e+02
  1.927346e+01    5.159077e+02
  1.929624e+01    5.152331e+02
  1.931902e+01    5.145561e+02
  1.934181e+01    5.139148e+02
  1.936459e+01    5.131634e+02
  1.938737e+01    5.124971e+02
  1.941016e+01    5.118551e+02
  1.943294e+01    5.110958e+02
  1.945572e+01    5.104315e+02
  1.947850e+01    5.097350e+02
  1.950129e+01    5.089858e+02
  1.952407e+01    5.082789e+02
  1.954685e+01    5.076570e+02
  1.956964e+01    5.070326e+02
  1.959242e+01    5.063083e+02
  1.961520e+01    5.056107e+02
  1.963798e+01    5.049512e+02
  1.966077e+01    5.042828e+02
  1.968355e+01    5.035165e+02
  1.970633e+01    5.027708e+02
  1.972912e+01    5.021257e+02
  1.975190e+01    5.013927e+02
  1.977468e+01    5.006545e+02
  1.979746e+01    4.998839e+02
  1.982025e+01    4.992650e+02
  1.984303e+01    4.984997e+02
  1.986581e+01    4.977828e+02
  1.988859e+01    4.970504e+02
  1.991138e+01    4.962706e+02
  1.993416e+01    4.955573e+02
  1.995694e+01    4.947866e+02
  1.997973e+01    4.939833e+02
  2.000251e+01    4.932468e+02
  2.002529e+01    4.924804e+02
  2.004807e+01    4.917999e+02
  2.007086e+01    4.910259e+02
  2.009364e+01    4.901895e+02
  2.011642e+01    4.894597e+02
  2.013921e+01    4.886438e+02
  2.016199e+01    4.878224e+02
  2.018477e+01    4.870745e+02
  2.020755e+01    4.862949e+02
  2.023034e+01    4.855216e+02
  2.025312e+01    4.846840e+02
  2.027590e+01    4.839339e+02
  2.029868e+01    4.830736e+02
  2.032147e+01    4.822108e+02
  2.034425e+01    4.814702e+02
  2.036703e+01    4.806148e+02
  2.038982e+01    4.798558e+02
  2.041260e+01    4.790355e+02
  2.043538e+01    4.782891e+02
  2.045816e+01    4.775002e+02
  2.048095e+01    4.767019e+02
  2.050373e+01    4.759346e+02
  2.052651e+01    4.752325e+02
  2.054930e+01    4.745057e+02
  2.057208e+01    4.737206e+02
  2.059486e+01    4.729953e+02
  2.061764e+01    4.721947e+02
  2.064043e+01    4.714340e+02
  2.066321e+01    4.707148e+02
  2.068599e+01    4.700391e+02
  2.070878e+01    4.693004e+02
  2.073156e+01    4.685660e+02
  2.075434e+01    4.677729e+02
  2.077712e+01    4.669609e+02
  2.079991e+01    4.661691e+02
  2.082269e+01    4.653658e+02
  2.084547e+01    4.646115e+02
  2.086825e+01    4.638455e+02
  2.089104e+01    4.631207e+02
  2.091382e+01    4.624130e+02
  2.093660e+01    4.615924e+02
  2.095939e+01    4.608376e+02
  2.098217e+01    4.600819e+02
  2.100495e+01    4.593169e+02
  2.102773e+01    4.585798e+02
  2.105052e+01    4.578028e+02
  2.107330e+01    4.570061e+02
  2.109608e+01    4.561929e+02
  2.111887e+01    4.554289e+02
  2.114165e+01    4.547326e+02
  2.116443e+01    4.539337e+02
  2.118721e+01    4.531116e+02
  2.121000e+01    4.524533e+02
  2.123278e+01    4.517076e+02
  2.125556e+01    4.509100e+02
  2.127835e+01    4.501404e+02
  2.130113e+01    4.494220e+02
  2.132391e+01    4.487231e+02
  2.134669e+01    4.478731e+02
  2.136948e+01    4.470982e+02
  2.139226e+01    4.463684e+02
  2.141504e+01    4.458203e+02
  2.143782e+01    4.452959e+02
  2.146061e+01    4.444014e+02
  2.148339e+01    4.435520e+02
  2.150617e+01    4.427655e+02
  2.152896e+01    4.420216e+02
  2.155174e+01    4.412289e+02
  2.157452e+01    4.404326e+02
  2.159730e+01    4.396341e+02
  2.162009e+01    4.388760e+02
  2.164287e+01    4.381302e+02
  2.166565e+01    4.373768e+02
  2.168844e+01    4.365966e+02
  2.171122e+01    4.358522e+02
  2.173400e+01    4.351024e+02
  2.175678e+01    4.343444e+02
  2.177957e+01    4.336060e+02
  2.180235e+01    4.328151e+02
  2.182513e+01    4.320728e+02
  2.184791e+01    4.313486e+02
  2.187070e+01    4.306235e+02
  2.189348e+01    4.299465e+02
  2.191626e+01    4.292022e+02
  2.193905e+01    4.284587e+02
  2.196183e+01    4.277585e+02
  2.198461e+01    4.269660e+02
  2.200739e+01    4.262258e+02
  2.203018e+01    4.255296e+02
  2.205296e+01    4.248047e+02
  2.207574e+01    4.240735e+02
  2.209853e+01    4.233257e+02
  2.212131e+01    4.226030e+02
  2.214409e+01    4.219261e+02
  2.216687e+01    4.211415e+02
  2.218966e+01    4.204653e+02
  2.221244e+01    4.197476e+02
  2.223522e+01    4.190405e+02
  2.225801e+01    4.183363e+02
  2.228079e+01    4.176715e+02
  2.230357e+01    4.169058e+02
  2.232635e+01    4.162186e+02
  2.234914e+01    4.154777e+02
  2.237192e+01    4.147883e+02
  2.239470e+01    4.140545e+02
  2.241748e+01    4.133621e+02
  2.244027e+01    4.126481e+02
  2.246305e+01    4.119661e+02
  2.248583e+01    4.112487e+02
  2.250862e+01    4.105691e+02
  2.253140e+01    4.098770e+02
  2.255418e+01    4.091996e+02
  2.257696e+01    4.085350e+02
  2.259975e+01    4.078107e+02
  2.262253e+01    4.071306e+02
  2.264531e+01    4.064224e+02
  2.266810e+01    4.057977e+02
  2.269088e+01    4.051579e+02
  2.271366e+01    4.044803e+02
  2.273644e+01    4.038080e+02
  2.275923e+01    4.031508e+02
  2.278201e+01    4.025449e+02
  2.280479e+01    4.018544e+02
  2.282758e+01    4.011205e+02
  2.285036e+01    4.004417e+02
  2.287314e+01    3.997883e+02
  2.289592e+01    3.992098e+02
  2.291871e+01    3.985266e+02
  2.294149e+01    3.978620e+02
  2.296427e+01    3.971640e+02
  2.298705e+01    3.965293e+02
  2.300984e+01    3.958056e+02
  2.303262e+01    3.951530e+02
  2.305540e+01    3.945246e+02
  2.307819e+01    3.938951e+02
  2.310097e+01    3.931836e+02
  2.312375e+01    3.924372e+02
  2.314653e+01    3.917626e+02
  2.316932e+01    3.911055e+02
  2.319210e+01    3.904541e+02
  2.321488e+01    3.898037e+02
  2.323767e+01    3.891488e+02
  2.326045e+01    3.885331e+02
  2.328323e+01    3.878404e+02
  2.330601e+01    3.872052e+02
  2.332880e+01    3.865074e+02
  2.335158e+01    3.858347e+02
  2.337436e+01    3.851685e+02
  2.339714e+01    3.845385e+02
  2.341993e+01    3.839352e+02
  2.344271e+01    3.833151e+02
  2.346549e+01    3.826063e+02
  2.348828e+01    3.819176e+02
  2.351106e+01    3.812536e+02
  2.353384e+01    3.805930e+02
  2.355662e+01    3.799588e+02
  2.357941e+01    3.793265e+02
  2.360219e+01    3.786445e+02
  2.362497e+01    3.779584e+02
  2.364776e+01    3.772961e+02
  2.367054e+01    3.766366e+02
  2.369332e+01    3.762168e+02
  2.371610e+01    3.757005e+02
  2.373889e+01    3.748888e+02
  2.376167e+01    3.741125e+02
  2.378445e+01    3.734005e+02
  2.380724e+01    3.727027e+02
  2.383002e+01    3.720527e+02
  2.385280e+01    3.713822e+02
  2.387558e+01    3.706238e+02
  2.389837e+01    3.699228e+02
  2.392115e+01    3.692287e+02
  2.394393e+01    3.685745e+02
  2.396671e+01    3.678512e+02
  2.398950e+01    3.671551e+02
  2.401228e+01    3.665023e+02
  2.403506e+01    3.658481e+02
  2.405785e+01    3.651826e+02
  2.408063e+01    3.645484e+02
  2.410341e+01    3.638858e+02
  2.412619e+01    3.631793e+02
  2.414898e+01    3.624919e+02
  2.417176e+01    3.618562e+02
  2.419454e+01    3.612117e+02
  2.421733e+01    3.605346e+02
  2.424011e+01    3.598731e+02
  2.426289e+01    3.591736e+02
  2.428567e+01    3.585288e+02
  2.430846e+01    3.578718e+02
  2.433124e+01    3.572215e+02
  2.435402e+01    3.565211e+02
  2.437681e+01    3.558095e+02
  2.439959e+01    3.551013e+02
  2.442237e+01    3.544020e+02
  2.444515e+01    3.537687e+02
  2.446794e+01    3.530804e+02
  2.449072e+01    3.523615e+02
  2.451350e+01    3.516637e+02
  2.453628e+01    3.509698e+02
  2.455907e+01    3.503012e+02
  2.458185e+01    3.496260e+02
  2.460463e+01    3.489397e+02
  2.462742e+01    3.482569e+02
  2.465020e+01    3.475666e+02
  2.467298e+01    3.468977e+02
  2.469576e+01    3.462187e+02
  2.471855e+01    3.455324e+02
  2.474133e+01    3.448452e+02
  2.476411e+01    3.442067e+02
  2.478690e+01    3.435322e+02
  2.480968e+01    3.428249e+02
  2.483246e+01    3.421943e+02
  2.485524e+01    3.414725e+02
  2.487803e+01    3.407923e+02
  2.490081e+01    3.400977e+02
  2.492359e+01    3.394177e+02
  2.494637e+01    3.387354e+02
  2.496916e+01    3.380286e+02
  2.499194e+01    3.373922e+02
  2.501472e+01    3.367568e+02
  2.503751e+01    3.360352e+02
  2.506029e+01    3.353361e+02
  2.508307e+01    3.347025e+02
  2.510585e+01    3.340349e+02
  2.512864e+01    3.333195e+02
  2.515142e+01    3.326260e+02
  2.517420e+01    3.319535e+02
  2.519699e+01    3.312788e+02
  2.521977e+01    3.305891e+02
  2.524255e+01    3.299032e+02
  2.526533e+01    3.292713e+02
  2.528812e+01    3.285996e+02
  2.531090e+01    3.279168e+02
  2.533368e+01    3.272176e+02
  2.535647e+01    3.266322e+02
  2.537925e+01    3.260257e+02
  2.540203e+01    3.254127e+02
  2.542481e+01    3.247778e+02
  2.544760e+01    3.241225e+02
  2.547038e+01    3.234115e+02
  2.549316e+01    3.227622e+02
  2.551594e+01    3.221602e+02
  2.553873e+01    3.214903e+02
  2.556151e+01    3.208466e+02
  2.558429e+01    3.201623e+02
  2.560708e+01    3.195155e+02
  2.562986e+01    3.188786e+02
  2.565264e+01    3.182538e+02
  2.567542e+01    3.176284e+02
  2.569821e+01    3.169781e+02
  2.572099e+01    3.163702e+02
  2.574377e+01    3.157375e+02
  2.576656e+01    3.151256e+02
  2.578934e+01    3.144690e+02
  2.581212e+01    3.137766e+02
  2.583490e+01    3.131973e+02
  2.585769e+01    3.125589e+02
  2.588047e+01    3.119149e+02
  2.590325e+01    3.112718e+02
  2.592604e+01    3.106390e+02
  2.594882e+01    3.100065e+02
  2.597160e+01    3.093873e+02
  2.599438e+01    3.086971e+02
  2.601717e+01    3.081301e+02
  2.603995e+01    3.074734e+02
  2.606273e+01    3.068581e+02
  2.608551e+01    3.062020e+02
  2.610830e+01    3.055670e+02
  2.613108e+01    3.049415e+02
  2.615386e+01    3.043280e+02
  2.617665e+01    3.036969e+02
  2.619943e+01    3.030639e+02
  2.622221e+01    3.024343e+02
  2.624499e+01    3.017915e+02
  2.626778e+01    3.012172e+02
  2.629056e+01    3.006084e+02
  2.631334e+01    2.999989e+02
  2.633613e+01    2.993682e+02
  2.635891e+01    2.987249e+02
  2.638169e+01    2.981028e+02
  2.640447e+01    2.974303e+02
  2.642726e+01    2.968145e+02
  2.645004e+01    2.962141e+02
  2.647282e+01    2.955913e+02
  2.649560e+01    2.949333e+02
  2.651839e+01    2.943208e+02
  2.654117e+01    2.936908e+02
  2.656395e+01    2.930541e+02
  2.658674e+01    2.924882e+02
  2.660952e+01    2.918463e+02
  2.663230e+01    2.911821e+02
  2.665508e+01    2.905976e+02
  2.667787e+01    2.899938e+02
  2.670065e+01    2.893798e+02
  2.672343e+01    2.887346e+02
  2.674622e+01    2.881419e+02
  2.676900e+01    2.875076e+02
  2.679178e+01    2.868761e+02
  2.681456e+01    2.862570e+02
  2.683735e+01    2.855933e+02
  2.686013e+01    2.849989e+02
  2.688291e+01    2.843654e+02
  2.690570e+01    2.837588e+02
  2.692848e+01    2.831501e+02
  2.695126e+01    2.825476e+02
  2.697404e+01    2.819382e+02
  2.699683e+01    2.812778e+02
  2.701961e+01    2.806441e+02
  2.704239e+01    2.800365e+02
  2.706517e+01    2.794166e+02
  2.708796e+01    2.787582e+02
  2.711074e+01    2.781118e+02
  2.713352e+01    2.774723e+02
  2.715631e+01    2.768722e+02
  2.717909e+01    2.762702e+02
  2.720187e+01    2.759156e+02
  2.722465e+01    2.762071e+02
  2.724744e+01    2.760754e+02
  2.727022e+01    2.758064e+02
  2.729300e+01    2.755289e+02
  2.731579e+01    2.751555e+02
  2.733857e+01    2.747860e+02
  2.736135e+01    2.743535e+02
  2.738413e+01    2.738959e+02
  2.740692e+01    2.734114e+02
  2.742970e+01    2.725613e+02
  2.745248e+01    2.717435e+02
  2.747527e+01    2.710150e+02
  2.749805e+01    2.703614e+02
  2.752083e+01    2.696823e+02
  2.754361e+01    2.690089e+02
  2.756640e+01    2.683027e+02
  2.758918e+01    2.675713e+02
  2.761196e+01    2.661218e+02
  2.763474e+01    2.648645e+02
  2.765753e+01    2.637946e+02
  2.768031e+01    2.627676e+02
  2.770309e+01    2.618458e+02
  2.772588e+01    2.608512e+02
  2.774866e+01    2.599077e+02
  2.777144e+01    2.589686e+02
  2.779422e+01    2.586599e+02
  2.781701e+01    2.588183e+02
  2.783979e+01    2.585317e+02
  2.786257e+01    2.581501e+02
  2.788536e+01    2.577548e+02
  2.790814e+01    2.572718e+02
  2.793092e+01    2.567631e+02
  2.795370e+01    2.562818e+02
  2.797649e+01    2.557200e+02
  2.799927e+01    2.551811e+02
  2.802205e+01    2.546674e+02
  2.804483e+01    2.541653e+02
  2.806762e+01    2.536022e+02
  2.809040e+01    2.531043e+02
  2.811318e+01    2.525043e+02
  2.813597e+01    2.519707e+02
  2.815875e+01    2.514612e+02
  2.818153e+01    2.508690e+02
  2.820431e+01    2.502621e+02
  2.822710e+01    2.497265e+02
  2.824988e+01    2.491938e+02
  2.827266e+01    2.486108e+02
  2.829545e+01    2.480219e+02
  2.831823e+01    2.474751e+02
  2.834101e+01    2.469056e+02
  2.836379e+01    2.463282e+02
  2.838658e+01    2.457914e+02
  2.840936e+01    2.452413e+02
  2.843214e+01    2.446625e+02
  2.845493e+01    2.440692e+02
  2.847771e+01    2.435002e+02
  2.850049e+01    2.429229e+02
  2.852327e+01    2.423528e+02
  2.854606e+01    2.417648e+02
  2.856884e+01    2.412329e+02
  2.859162e+01    2.406416e+02
  2.861440e+01    2.400844e+02
  2.863719e+01    2.395269e+02
  2.865997e+01    2.389725e+02
  2.868275e+01    2.383505e+02
  2.870554e+01    2.378049e+02
  2.872832e+01    2.372498e+02
  2.875110e+01    2.366646e+02
  2.877388e+01    2.361027e+02
  2.879667e+01    2.355281e+02
  2.881945e+01    2.349242e+02
  2.884223e+01    2.343556e+02
  2.886502e+01    2.337996e+02
  2.888780e+01    2.332482e+02
  2.891058e+01    2.327053e+02
  2.893336e+01    2.321293e+02
  2.895615e+01    2.316105e+02
  2.897893e+01    2.310582e+02
  2.900171e+01    2.304791e+02
  2.902450e+01    2.299358e+02
  2.904728e+01    2.293693e+02
  2.907006e+01    2.287882e+02
  2.909284e+01    2.282186e+02
  2.911563e+01    2.277228e+02
  2.913841e+01    2.271070e+02
  2.916119e+01    2.265409e+02
  2.918397e+01    2.259491e+02
  2.920676e+01    2.254096e+02
  2.922954e+01    2.248011e+02
  2.925232e+01    2.243134e+02
  2.927511e+01    2.236918e+02
  2.929789e+01    2.231906e+02
  2.932067e+01    2.226428e+02
  2.934345e+01    2.220476e+02
  2.936624e+01    2.214700e+02
  2.938902e+01    2.209161e+02
  2.941180e+01    2.203635e+02
  2.943459e+01    2.198505e+02
  2.945737e+01    2.193518e+02
  2.948015e+01    2.187787e+02
  2.950293e+01    2.181880e+02
  2.952572e+01    2.176683e+02
  2.954850e+01    2.170887e+02
  2.957128e+01    2.165366e+02
  2.959407e+01    2.159903e+02
  2.961685e+01    2.154747e+02
  2.963963e+01    2.149274e+02
  2.966241e+01    2.144121e+02
  2.968520e+01    2.138206e+02
  2.970798e+01    2.132428e+02
  2.973076e+01    2.127641e+02
  2.975354e+01    2.122813e+02
  2.977633e+01    2.116625e+02
  2.979911e+01    2.110957e+02
  2.982189e+01    2.106493e+02
  2.984468e+01    2.100699e+02
  2.986746e+01    2.095345e+02
  2.989024e+01    2.089564e+02
  2.991302e+01    2.083816e+02
  2.993581e+01    2.079311e+02
  2.995859e+01    2.073721e+02
  2.998137e+01    2.068343e+02
  3.000416e+01    2.062905e+02
  3.002694e+01    2.058266e+02
  3.004972e+01    2.052756e+02
  3.007250e+01    2.047368e+02
  3.009529e+01    2.041678e+02
  3.011807e+01    2.035927e+02
  3.014085e+01    2.030331e+02
  3.016363e+01    2.025335e+02
  3.018642e+01    2.020763e+02
  3.020920e+01    2.015558e+02
  3.023198e+01    2.009699e+02
  3.025477e+01    2.004611e+02
  3.027755e+01    1.999400e+02
  3.030033e+01    1.994769e+02
  3.032311e+01    1.989378e+02
  3.034590e+01    1.983699e+02
  3.036868e+01    1.978960e+02
  3.039146e+01    1.973910e+02
  3.041425e+01    1.968658e+02
  3.043703e+01    1.963817e+02
  3.045981e+01    1.958213e+02
  3.048259e+01    1.953127e+02
  3.050538e+01    1.947394e+02
  3.052816e+01    1.942576e+02
  3.055094e+01    1.937296e+02
  3.057373e+01    1.932757e+02
  3.059651e+01    1.927803e+02
  3.061929e+01    1.921104e+02
  3.064207e+01    1.916270e+02
  3.066486e+01    1.910800e+02
  3.068764e+01    1.906536e+02
  3.071042e+01    1.901429e+02
  3.073320e+01    1.896753e+02
  3.075599e+01    1.890886e+02
  3.077877e+01    1.886008e+02
  3.080155e+01    1.880596e+02
  3.082434e+01    1.875762e+02
  3.084712e+01    1.870657e+02
  3.086990e+01    1.865457e+02
  3.089268e+01    1.860389e+02
  3.091547e+01    1.855378e+02
  3.093825e+01    1.850799e+02
  3.096103e+01    1.845474e+02
  3.098382e+01    1.840726e+02
  3.100660e+01    1.834679e+02
  3.102938e+01    1.830495e+02
  3.105216e+01    1.825791e+02
  3.107495e+01    1.821327e+02
  3.109773e+01    1.816381e+02
  3.112051e+01    1.811187e+02
  3.114330e+01    1.806121e+02
  3.116608e+01    1.799832e+02
  3.118886e+01    1.796203e+02
  3.121164e+01    1.791771e+02
  3.123443e+01    1.786228e+02
  3.125721e+01    1.781555e+02
  3.127999e+01    1.776733e+02
  3.130277e+01    1.770978e+02
  3.132556e+01    1.766143e+02
  3.134834e+01    1.762071e+02
  3.137112e+01    1.758254e+02
  3.139391e+01    1.753190e+02
  3.141669e+01    1.747681e+02
  3.143947e+01    1.743252e+02
  3.146225e+01    1.737085e+02
  3.148504e+01    1.733041e+02
  3.150782e+01    1.726531e+02
  3.153060e+01    1.724180e+02
  3.155339e+01    1.720216e+02
  3.157617e+01    1.714377e+02
  3.159895e+01    1.708099e+02
  3.162173e+01    1.703759e+02
  3.164452e+01    1.699882e+02
  3.166730e+01    1.693972e+02
  3.169008e+01    1.690667e+02
  3.171286e+01    1.684970e+02
  3.173565e+01    1.680370e+02
  3.175843e+01    1.674470e+02
  3.178121e+01    1.670303e+02
  3.180400e+01    1.665373e+02
  3.182678e+01    1.660044e+02
  3.184956e+01    1.654889e+02
  3.187234e+01    1.649574e+02
  3.189513e+01    1.647046e+02
  3.191791e+01    1.642027e+02
  3.194069e+01    1.636797e+02
  3.196348e+01    1.631933e+02
  3.198626e+01    1.627106e+02
  3.200904e+01    1.623169e+02
  3.203182e+01    1.617435e+02
  3.205461e+01    1.612145e+02
  3.207739e+01    1.607428e+02
  3.210017e+01    1.602035e+02
  3.212296e+01    1.599212e+02
  3.214574e+01    1.593370e+02
  3.216852e+01    1.589654e+02
  3.219130e+01    1.583896e+02
  3.221409e+01    1.578000e+02
  3.223687e+01    1.572362e+02
  3.225965e+01    1.567926e+02
  3.228243e+01    1.562763e+02
  3.230522e+01    1.557773e+02
  3.232800e+01    1.552555e+02
  3.235078e+01    1.548748e+02
  3.237357e+01    1.542574e+02
  3.239635e+01    1.538631e+02
  3.241913e+01    1.534797e+02
  3.244191e+01    1.527378e+02
  3.246470e+01    1.521850e+02
  3.248748e+01    1.516288e+02
  3.251026e+01    1.511809e+02
  3.253305e+01    1.506075e+02
  3.255583e+01    1.501015e+02
  3.257861e+01    1.497151e+02
  3.260139e+01    1.490651e+02
  3.262418e+01    1.485201e+02
  3.264696e+01    1.479631e+02
  3.266974e+01    1.474817e+02
  3.269253e+01    1.469315e+02
  3.271531e+01    1.464293e+02
  3.273809e+01    1.458295e+02
  3.276087e+01    1.454077e+02
  3.278366e+01    1.447203e+02
  3.280644e+01    1.443428e+02
  3.282922e+01    1.439088e+02
  3.285200e+01    1.432687e+02
  3.287479e+01    1.427988e+02
  3.289757e+01    1.421489e+02
  3.292035e+01    1.414919e+02
  3.294314e+01    1.409704e+02
  3.296592e+01    1.405477e+02
  3.298870e+01    1.400706e+02
  3.301148e+01    1.395650e+02
  3.303427e+01    1.390081e+02
  3.305705e+01    1.386415e+02
  3.307983e+01    1.380691e+02
  3.310262e+01    1.372759e+02
  3.312540e+01    1.369415e+02
  3.314818e+01    1.364489e+02
  3.317096e+01    1.357896e+02
  3.319375e+01    1.355069e+02
  3.321653e+01    1.349202e+02
  3.323931e+01    1.344178e+02
  3.326209e+01    1.338327e+02
  3.328488e+01    1.333794e+02
  3.330766e+01    1.326638e+02
  3.333044e+01    1.322104e+02
  3.335323e+01    1.318812e+02
  3.337601e+01    1.310636e+02
  3.339879e+01    1.309899e+02
  3.342157e+01    1.314629e+02
  3.344436e+01    1.303110e+02
  3.346714e+01    1.300834e+02
  3.348992e+01    1.280701e+02
  3.351271e+01    1.263129e+02
  3.353549e+01    0.000000e+00
  3.355827e+01    0.000000e+00
  3.358105e+01    0.000000e+00
  3.360384e+01    0.000000e+00
  3.362662e+01    0.000000e+00
  3.364940e+01    0.000000e+00
  3.367219e+01    0.000000e+00
  3.369497e+01    0.000000e+00
  3.371775e+01    0.000000e+00
