# == pyFAI calibration ==
# Distance Sample to Detector: 0.21311058206280517 m
# PONI: 2.037e-01, 1.993e-01 m
# Rotations: -0.005459 0.000134 0.000000 rad
# 
# == Fit2d calibration ==
# Distance Sample-beamCenter: 213.114 mm
# Center: x=1002.134, y=1018.730 pix
# Tilt: 0.313 deg  TiltPlanRot: 1.411 deg
# 
# Detector Perkin detector	 PixelSize= 2.000e-04, 2.000e-04 m
#    Detector has a mask: False 
#    Detector has a dark current: False 
#    detector has a flat field: False 
# 
# Wavelength: 1.675e-11 m
# Mask applied: provided
# Dark current applied: False
# Flat field applied: False
# Polarization factor: None
# Normalization factor: 1.0
# --> data/chi_bkgsub_false/C_Tatania6-16.8-average.chi
#        q_A^-1             I 
  2.199784e-02    1.270098e+02
  4.478064e-02    1.279672e+02
  6.756343e-02    1.272569e+02
  9.034623e-02    1.276738e+02
  1.131290e-01    1.303142e+02
  1.359118e-01    1.320373e+02
  1.586946e-01    1.352277e+02
  1.814774e-01    1.399015e+02
  2.042602e-01    1.454134e+02
  2.270430e-01    1.568943e+02
  2.498258e-01    1.777756e+02
  2.726086e-01    2.141178e+02
  2.953914e-01    4.068927e+02
  3.181742e-01    6.465764e+02
  3.409570e-01    1.040863e+03
  3.637398e-01    1.465695e+03
  3.865226e-01    1.190710e+03
  4.093054e-01    8.844810e+02
  4.320881e-01    7.128607e+02
  4.548709e-01    6.359183e+02
  4.776537e-01    6.838226e+02
  5.004365e-01    7.304291e+02
  5.232193e-01    7.667670e+02
  5.460021e-01    8.148466e+02
  5.687849e-01    8.826410e+02
  5.915677e-01    9.627219e+02
  6.143505e-01    1.045312e+03
  6.371333e-01    1.164212e+03
  6.599161e-01    1.281192e+03
  6.826989e-01    1.399367e+03
  7.054817e-01    1.505162e+03
  7.282645e-01    1.589961e+03
  7.510473e-01    1.656120e+03
  7.738301e-01    1.703191e+03
  7.966129e-01    1.745409e+03
  8.193956e-01    1.789203e+03
  8.421784e-01    1.833062e+03
  8.649612e-01    1.880358e+03
  8.877440e-01    1.931705e+03
  9.105268e-01    1.983324e+03
  9.333096e-01    2.040442e+03
  9.560924e-01    2.102099e+03
  9.788752e-01    2.165553e+03
  1.001658e+00    2.235107e+03
  1.024441e+00    2.308800e+03
  1.047224e+00    2.387186e+03
  1.070006e+00    2.472648e+03
  1.092789e+00    2.562207e+03
  1.115572e+00    2.656366e+03
  1.138355e+00    2.760072e+03
  1.161138e+00    2.867737e+03
  1.183920e+00    2.981719e+03
  1.206703e+00    3.105351e+03
  1.229486e+00    3.230480e+03
  1.252269e+00    3.365571e+03
  1.275052e+00    3.509337e+03
  1.297834e+00    3.647161e+03
  1.320617e+00    3.796280e+03
  1.343400e+00    3.950930e+03
  1.366183e+00    4.103141e+03
  1.388966e+00    4.261130e+03
  1.411748e+00    4.418068e+03
  1.434531e+00    4.572976e+03
  1.457314e+00    4.726283e+03
  1.480097e+00    4.864488e+03
  1.502879e+00    4.997760e+03
  1.525662e+00    5.124550e+03
  1.548445e+00    5.236877e+03
  1.571228e+00    5.336688e+03
  1.594011e+00    5.423325e+03
  1.616793e+00    5.498958e+03
  1.639576e+00    5.554897e+03
  1.662359e+00    5.598966e+03
  1.685142e+00    5.644361e+03
  1.707925e+00    5.684598e+03
  1.730707e+00    5.724134e+03
  1.753490e+00    5.756757e+03
  1.776273e+00    5.759369e+03
  1.799056e+00    5.716162e+03
  1.821839e+00    5.627040e+03
  1.844621e+00    5.522265e+03
  1.867404e+00    5.426137e+03
  1.890187e+00    5.332123e+03
  1.912970e+00    5.251969e+03
  1.935753e+00    5.184892e+03
  1.958535e+00    5.122082e+03
  1.981318e+00    5.061221e+03
  2.004101e+00    5.001863e+03
  2.026884e+00    4.946454e+03
  2.049667e+00    4.887814e+03
  2.072449e+00    4.821259e+03
  2.095232e+00    4.757612e+03
  2.118015e+00    4.689667e+03
  2.140798e+00    4.622374e+03
  2.163581e+00    4.543218e+03
  2.186363e+00    4.459591e+03
  2.209146e+00    4.379344e+03
  2.231929e+00    4.289310e+03
  2.254712e+00    4.195361e+03
  2.277494e+00    4.102511e+03
  2.300277e+00    4.004976e+03
  2.323060e+00    3.903423e+03
  2.345843e+00    3.803827e+03
  2.368626e+00    3.702960e+03
  2.391408e+00    3.604468e+03
  2.414191e+00    3.504623e+03
  2.436974e+00    3.407436e+03
  2.459757e+00    3.317141e+03
  2.482540e+00    3.227632e+03
  2.505322e+00    3.141021e+03
  2.528105e+00    3.061864e+03
  2.550888e+00    2.991513e+03
  2.573671e+00    2.929117e+03
  2.596454e+00    2.875362e+03
  2.619236e+00    2.830342e+03
  2.642019e+00    2.786059e+03
  2.664802e+00    2.737321e+03
  2.687585e+00    2.692813e+03
  2.710368e+00    2.655957e+03
  2.733150e+00    2.632308e+03
  2.755933e+00    2.616163e+03
  2.778716e+00    2.608871e+03
  2.801499e+00    2.611186e+03
  2.824282e+00    2.615368e+03
  2.847064e+00    2.621011e+03
  2.869847e+00    2.628469e+03
  2.892630e+00    2.636247e+03
  2.915413e+00    2.640013e+03
  2.938196e+00    2.642330e+03
  2.960978e+00    2.641740e+03
  2.983761e+00    2.639168e+03
  3.006544e+00    2.634909e+03
  3.029327e+00    2.628893e+03
  3.052110e+00    2.621028e+03
  3.074892e+00    2.608951e+03
  3.097675e+00    2.595572e+03
  3.120458e+00    2.582822e+03
  3.143241e+00    2.570494e+03
  3.166023e+00    2.558429e+03
  3.188806e+00    2.547675e+03
  3.211589e+00    2.540085e+03
  3.234372e+00    2.537724e+03
  3.257155e+00    2.538861e+03
  3.279937e+00    2.541737e+03
  3.302720e+00    2.538494e+03
  3.325503e+00    2.525341e+03
  3.348286e+00    2.503633e+03
  3.371069e+00    2.477766e+03
  3.393851e+00    2.455263e+03
  3.416634e+00    2.438042e+03
  3.439417e+00    2.426236e+03
  3.462200e+00    2.421356e+03
  3.484983e+00    2.420296e+03
  3.507765e+00    2.417871e+03
  3.530548e+00    2.417637e+03
  3.553331e+00    2.419742e+03
  3.576114e+00    2.425074e+03
  3.598897e+00    2.434271e+03
  3.621679e+00    2.449038e+03
  3.644462e+00    2.472023e+03
  3.667245e+00    2.495521e+03
  3.690028e+00    2.515688e+03
  3.712811e+00    2.530965e+03
  3.735593e+00    2.540881e+03
  3.758376e+00    2.545321e+03
  3.781159e+00    2.544807e+03
  3.803942e+00    2.542879e+03
  3.826725e+00    2.541355e+03
  3.849507e+00    2.541588e+03
  3.872290e+00    2.545823e+03
  3.895073e+00    2.556766e+03
  3.917856e+00    2.565413e+03
  3.940638e+00    2.570829e+03
  3.963421e+00    2.580126e+03
  3.986204e+00    2.590334e+03
  4.008987e+00    2.599643e+03
  4.031770e+00    2.608558e+03
  4.054552e+00    2.619530e+03
  4.077335e+00    2.633084e+03
  4.100118e+00    2.639288e+03
  4.122901e+00    2.648513e+03
  4.145684e+00    2.659919e+03
  4.168466e+00    2.672950e+03
  4.191249e+00    2.685896e+03
  4.214032e+00    2.696970e+03
  4.236815e+00    2.705133e+03
  4.259598e+00    2.702076e+03
  4.282380e+00    2.688184e+03
  4.305163e+00    2.675996e+03
  4.327946e+00    2.663836e+03
  4.350729e+00    2.652435e+03
  4.373512e+00    2.641861e+03
  4.396294e+00    2.631927e+03
  4.419077e+00    2.620820e+03
  4.441860e+00    2.607892e+03
  4.464643e+00    2.597124e+03
  4.487426e+00    2.593318e+03
  4.510208e+00    2.579058e+03
  4.532991e+00    2.562111e+03
  4.555774e+00    2.550744e+03
  4.578557e+00    2.539482e+03
  4.601340e+00    2.526467e+03
  4.624122e+00    2.511039e+03
  4.646905e+00    2.496807e+03
  4.669688e+00    2.483994e+03
  4.692471e+00    2.457929e+03
  4.715253e+00    2.435464e+03
  4.738036e+00    2.415071e+03
  4.760819e+00    2.395545e+03
  4.783602e+00    2.376677e+03
  4.806385e+00    2.359743e+03
  4.829167e+00    2.349617e+03
  4.851950e+00    2.335707e+03
  4.874733e+00    2.320790e+03
  4.897516e+00    2.313020e+03
  4.920299e+00    2.307234e+03
  4.943081e+00    2.301535e+03
  4.965864e+00    2.292616e+03
  4.988647e+00    2.280464e+03
  5.011430e+00    2.266461e+03
  5.034213e+00    2.244345e+03
  5.056995e+00    2.227321e+03
  5.079778e+00    2.217565e+03
  5.102561e+00    2.198952e+03
  5.125344e+00    2.182344e+03
  5.148127e+00    2.168741e+03
  5.170909e+00    2.155580e+03
  5.193692e+00    2.141490e+03
  5.216475e+00    2.127734e+03
  5.239258e+00    2.117239e+03
  5.262041e+00    2.104304e+03
  5.284823e+00    2.085439e+03
  5.307606e+00    2.071035e+03
  5.330389e+00    2.057410e+03
  5.353172e+00    2.042344e+03
  5.375955e+00    2.024460e+03
  5.398737e+00    2.003907e+03
  5.421520e+00    1.983783e+03
  5.444303e+00    1.956167e+03
  5.467086e+00    1.929459e+03
  5.489869e+00    1.905438e+03
  5.512651e+00    1.882739e+03
  5.535434e+00    1.860973e+03
  5.558217e+00    1.840284e+03
  5.581000e+00    1.822599e+03
  5.603782e+00    1.803727e+03
  5.626565e+00    1.782198e+03
  5.649348e+00    1.765169e+03
  5.672131e+00    1.749317e+03
  5.694914e+00    1.729553e+03
  5.717696e+00    1.713277e+03
  5.740479e+00    1.699066e+03
  5.763262e+00    1.685731e+03
  5.786045e+00    1.673033e+03
  5.808828e+00    1.662304e+03
  5.831610e+00    1.654810e+03
  5.854393e+00    1.643112e+03
  5.877176e+00    1.631738e+03
  5.899959e+00    1.623797e+03
  5.922742e+00    1.617124e+03
  5.945524e+00    1.610563e+03
  5.968307e+00    1.603868e+03
  5.991090e+00    1.598509e+03
  6.013873e+00    1.591347e+03
  6.036656e+00    1.579410e+03
  6.059438e+00    1.571382e+03
  6.082221e+00    1.564675e+03
  6.105004e+00    1.554474e+03
  6.127787e+00    1.547139e+03
  6.150570e+00    1.541365e+03
  6.173352e+00    1.536613e+03
  6.196135e+00    1.528704e+03
  6.218918e+00    1.520915e+03
  6.241701e+00    1.515347e+03
  6.264484e+00    1.507137e+03
  6.287266e+00    1.498340e+03
  6.310049e+00    1.490740e+03
  6.332832e+00    1.483357e+03
  6.355615e+00    1.475465e+03
  6.378397e+00    1.467809e+03
  6.401180e+00    1.461870e+03
  6.423963e+00    1.455809e+03
  6.446746e+00    1.447039e+03
  6.469529e+00    1.440217e+03
  6.492311e+00    1.433991e+03
  6.515094e+00    1.428168e+03
  6.537877e+00    1.422776e+03
  6.560660e+00    1.417328e+03
  6.583443e+00    1.411848e+03
  6.606225e+00    1.403153e+03
  6.629008e+00    1.394211e+03
  6.651791e+00    1.386718e+03
  6.674574e+00    1.377743e+03
  6.697357e+00    1.368906e+03
  6.720139e+00    1.361863e+03
  6.742922e+00    1.356352e+03
  6.765705e+00    1.350795e+03
  6.788488e+00    1.345368e+03
  6.811271e+00    1.340760e+03
  6.834053e+00    1.335422e+03
  6.856836e+00    1.328210e+03
  6.879619e+00    1.320967e+03
  6.902402e+00    1.314167e+03
  6.925185e+00    1.308003e+03
  6.947967e+00    1.302979e+03
  6.970750e+00    1.299352e+03
  6.993533e+00    1.296199e+03
  7.016316e+00    1.291296e+03
  7.039099e+00    1.285549e+03
  7.061881e+00    1.279964e+03
  7.084664e+00    1.274655e+03
  7.107447e+00    1.270005e+03
  7.130230e+00    1.265516e+03
  7.153013e+00    1.260789e+03
  7.175795e+00    1.255749e+03
  7.198578e+00    1.250950e+03
  7.221361e+00    1.247072e+03
  7.244144e+00    1.244203e+03
  7.266926e+00    1.241854e+03
  7.289709e+00    1.240102e+03
  7.312492e+00    1.239192e+03
  7.335275e+00    1.238975e+03
  7.358058e+00    1.239346e+03
  7.380840e+00    1.239852e+03
  7.403623e+00    1.240245e+03
  7.426406e+00    1.240286e+03
  7.449189e+00    1.240256e+03
  7.471972e+00    1.240589e+03
  7.494754e+00    1.241371e+03
  7.517537e+00    1.242653e+03
  7.540320e+00    1.244632e+03
  7.563103e+00    1.246674e+03
  7.585886e+00    1.248566e+03
  7.608668e+00    1.249886e+03
  7.631451e+00    1.250909e+03
  7.654234e+00    1.252093e+03
  7.677017e+00    1.253126e+03
  7.699800e+00    1.254526e+03
  7.722582e+00    1.256196e+03
  7.745365e+00    1.257778e+03
  7.768148e+00    1.259534e+03
  7.790931e+00    1.261583e+03
  7.813714e+00    1.263469e+03
  7.836496e+00    1.265140e+03
  7.859279e+00    1.266302e+03
  7.882062e+00    1.266298e+03
  7.904845e+00    1.265464e+03
  7.927628e+00    1.263805e+03
  7.950410e+00    1.262310e+03
  7.973193e+00    1.260960e+03
  7.995976e+00    1.259483e+03
  8.018759e+00    1.258016e+03
  8.041541e+00    1.256618e+03
  8.064324e+00    1.254759e+03
  8.087107e+00    1.252422e+03
  8.109890e+00    1.249998e+03
  8.132673e+00    1.247740e+03
  8.155455e+00    1.244522e+03
  8.178238e+00    1.241214e+03
  8.201021e+00    1.238236e+03
  8.223804e+00    1.235484e+03
  8.246587e+00    1.232516e+03
  8.269369e+00    1.229738e+03
  8.292152e+00    1.226719e+03
  8.314935e+00    1.223429e+03
  8.337718e+00    1.220213e+03
  8.360501e+00    1.217509e+03
  8.383283e+00    1.215137e+03
  8.406066e+00    1.212750e+03
  8.428849e+00    1.209546e+03
  8.451632e+00    1.205560e+03
  8.474415e+00    1.201057e+03
  8.497197e+00    1.196301e+03
  8.519980e+00    1.191545e+03
  8.542763e+00    1.187232e+03
  8.565546e+00    1.183278e+03
  8.588329e+00    1.179214e+03
  8.611111e+00    1.175331e+03
  8.633894e+00    1.171235e+03
  8.656677e+00    1.167523e+03
  8.679460e+00    1.163948e+03
  8.702243e+00    1.160428e+03
  8.725025e+00    1.157361e+03
  8.747808e+00    1.154297e+03
  8.770591e+00    1.151242e+03
  8.793374e+00    1.148174e+03
  8.816156e+00    1.144850e+03
  8.838939e+00    1.141710e+03
  8.861722e+00    1.138543e+03
  8.884505e+00    1.135734e+03
  8.907288e+00    1.132763e+03
  8.930070e+00    1.129154e+03
  8.952853e+00    1.125183e+03
  8.975636e+00    1.121001e+03
  8.998419e+00    1.116900e+03
  9.021202e+00    1.112925e+03
  9.043984e+00    1.109161e+03
  9.066767e+00    1.105199e+03
  9.089550e+00    1.101054e+03
  9.112333e+00    1.096576e+03
  9.135116e+00    1.092026e+03
  9.157898e+00    1.087281e+03
  9.180681e+00    1.082359e+03
  9.203464e+00    1.077672e+03
  9.226247e+00    1.073354e+03
  9.249030e+00    1.068963e+03
  9.271812e+00    1.064939e+03
  9.294595e+00    1.061048e+03
  9.317378e+00    1.056986e+03
  9.340161e+00    1.052855e+03
  9.362944e+00    1.048237e+03
  9.385726e+00    1.043278e+03
  9.408509e+00    1.038304e+03
  9.431292e+00    1.033697e+03
  9.454075e+00    1.029113e+03
  9.476858e+00    1.025022e+03
  9.499640e+00    1.021131e+03
  9.522423e+00    1.016826e+03
  9.545206e+00    1.012043e+03
  9.567989e+00    1.007187e+03
  9.590772e+00    1.002473e+03
  9.613554e+00    9.981741e+02
  9.636337e+00    9.938665e+02
  9.659120e+00    9.896401e+02
  9.681903e+00    9.855975e+02
  9.704685e+00    9.816444e+02
  9.727468e+00    9.778020e+02
  9.750251e+00    9.740154e+02
  9.773034e+00    9.705043e+02
  9.795817e+00    9.668328e+02
  9.818599e+00    9.630588e+02
  9.841382e+00    9.595178e+02
  9.864165e+00    9.564020e+02
  9.886948e+00    9.537118e+02
  9.909731e+00    9.509205e+02
  9.932513e+00    9.482791e+02
  9.955296e+00    9.458319e+02
  9.978079e+00    9.433041e+02
  1.000086e+01    9.409027e+02
  1.002364e+01    9.385464e+02
  1.004643e+01    9.362523e+02
  1.006921e+01    9.338789e+02
  1.009199e+01    9.316094e+02
  1.011478e+01    9.295489e+02
  1.013756e+01    9.274649e+02
  1.016034e+01    9.255929e+02
  1.018312e+01    9.237891e+02
  1.020591e+01    9.217279e+02
  1.022869e+01    9.198201e+02
  1.025147e+01    9.180264e+02
  1.027426e+01    9.161420e+02
  1.029704e+01    9.144091e+02
  1.031982e+01    9.127609e+02
  1.034260e+01    9.112324e+02
  1.036539e+01    9.098027e+02
  1.038817e+01    9.084180e+02
  1.041095e+01    9.071389e+02
  1.043373e+01    9.060536e+02
  1.045652e+01    9.048256e+02
  1.047930e+01    9.032980e+02
  1.050208e+01    9.020704e+02
  1.052487e+01    9.009831e+02
  1.054765e+01    8.999964e+02
  1.057043e+01    8.990394e+02
  1.059321e+01    8.979370e+02
  1.061600e+01    8.965286e+02
  1.063878e+01    8.948203e+02
  1.066156e+01    8.932691e+02
  1.068435e+01    8.916533e+02
  1.070713e+01    8.900931e+02
  1.072991e+01    8.883661e+02
  1.075269e+01    8.866260e+02
  1.077548e+01    8.847303e+02
  1.079826e+01    8.826597e+02
  1.082104e+01    8.806661e+02
  1.084383e+01    8.786288e+02
  1.086661e+01    8.765500e+02
  1.088939e+01    8.747498e+02
  1.091217e+01    8.730798e+02
  1.093496e+01    8.714587e+02
  1.095774e+01    8.698148e+02
  1.098052e+01    8.683779e+02
  1.100330e+01    8.670552e+02
  1.102609e+01    8.656190e+02
  1.104887e+01    8.641086e+02
  1.107165e+01    8.626725e+02
  1.109444e+01    8.610670e+02
  1.111722e+01    8.593088e+02
  1.114000e+01    8.575249e+02
  1.116278e+01    8.555536e+02
  1.118557e+01    8.536408e+02
  1.120835e+01    8.519600e+02
  1.123113e+01    8.501462e+02
  1.125392e+01    8.485423e+02
  1.127670e+01    8.469330e+02
  1.129948e+01    8.455058e+02
  1.132226e+01    8.441268e+02
  1.134505e+01    8.427053e+02
  1.136783e+01    8.412553e+02
  1.139061e+01    8.398975e+02
  1.141340e+01    8.385947e+02
  1.143618e+01    8.374721e+02
  1.145896e+01    8.364967e+02
  1.148174e+01    8.356015e+02
  1.150453e+01    8.348604e+02
  1.152731e+01    8.342891e+02
  1.155009e+01    8.335612e+02
  1.157287e+01    8.328162e+02
  1.159566e+01    8.319418e+02
  1.161844e+01    8.311556e+02
  1.164122e+01    8.303525e+02
  1.166401e+01    8.296288e+02
  1.168679e+01    8.288105e+02
  1.170957e+01    8.280274e+02
  1.173235e+01    8.272198e+02
  1.175514e+01    8.263569e+02
  1.177792e+01    8.256678e+02
  1.180070e+01    8.249161e+02
  1.182349e+01    8.241757e+02
  1.184627e+01    8.235362e+02
  1.186905e+01    8.231054e+02
  1.189183e+01    8.227455e+02
  1.191462e+01    8.225681e+02
  1.193740e+01    8.221996e+02
  1.196018e+01    8.218224e+02
  1.198296e+01    8.215356e+02
  1.200575e+01    8.213289e+02
  1.202853e+01    8.210511e+02
  1.205131e+01    8.206825e+02
  1.207410e+01    8.202446e+02
  1.209688e+01    8.198205e+02
  1.211966e+01    8.194558e+02
  1.214244e+01    8.191139e+02
  1.216523e+01    8.186899e+02
  1.218801e+01    8.180932e+02
  1.221079e+01    8.176197e+02
  1.223358e+01    8.169968e+02
  1.225636e+01    8.162415e+02
  1.227914e+01    8.154616e+02
  1.230192e+01    8.146281e+02
  1.232471e+01    8.138746e+02
  1.234749e+01    8.131601e+02
  1.237027e+01    8.123248e+02
  1.239306e+01    8.114110e+02
  1.241584e+01    8.103339e+02
  1.243862e+01    8.092980e+02
  1.246140e+01    8.083013e+02
  1.248419e+01    8.072062e+02
  1.250697e+01    8.061316e+02
  1.252975e+01    8.047675e+02
  1.255253e+01    8.031537e+02
  1.257532e+01    8.015720e+02
  1.259810e+01    7.999562e+02
  1.262088e+01    7.983135e+02
  1.264367e+01    7.966581e+02
  1.266645e+01    7.950526e+02
  1.268923e+01    7.932726e+02
  1.271201e+01    7.914255e+02
  1.273480e+01    7.894898e+02
  1.275758e+01    7.877149e+02
  1.278036e+01    7.859513e+02
  1.280315e+01    7.841536e+02
  1.282593e+01    7.823766e+02
  1.284871e+01    7.807246e+02
  1.287149e+01    7.790432e+02
  1.289428e+01    7.773530e+02
  1.291706e+01    7.754802e+02
  1.293984e+01    7.735291e+02
  1.296263e+01    7.716947e+02
  1.298541e+01    7.697933e+02
  1.300819e+01    7.678953e+02
  1.303097e+01    7.660005e+02
  1.305376e+01    7.641272e+02
  1.307654e+01    7.621450e+02
  1.309932e+01    7.600643e+02
  1.312210e+01    7.581722e+02
  1.314489e+01    7.563247e+02
  1.316767e+01    7.544716e+02
  1.319045e+01    7.526505e+02
  1.321324e+01    7.508427e+02
  1.323602e+01    7.490187e+02
  1.325880e+01    7.474091e+02
  1.328158e+01    7.457725e+02
  1.330437e+01    7.441645e+02
  1.332715e+01    7.426270e+02
  1.334993e+01    7.410519e+02
  1.337272e+01    7.394193e+02
  1.339550e+01    7.378644e+02
  1.341828e+01    7.362245e+02
  1.344106e+01    7.345488e+02
  1.346385e+01    7.329314e+02
  1.348663e+01    7.312377e+02
  1.350941e+01    7.295557e+02
  1.353219e+01    7.278153e+02
  1.355498e+01    7.260139e+02
  1.357776e+01    7.243066e+02
  1.360054e+01    7.227343e+02
  1.362333e+01    7.211962e+02
  1.364611e+01    7.196756e+02
  1.366889e+01    7.182660e+02
  1.369167e+01    7.168297e+02
  1.371446e+01    7.153952e+02
  1.373724e+01    7.139567e+02
  1.376002e+01    7.126835e+02
  1.378281e+01    7.113455e+02
  1.380559e+01    7.100806e+02
  1.382837e+01    7.088522e+02
  1.385115e+01    7.077695e+02
  1.387394e+01    7.066713e+02
  1.389672e+01    7.054366e+02
  1.391950e+01    7.043949e+02
  1.394229e+01    7.033576e+02
  1.396507e+01    7.021603e+02
  1.398785e+01    7.009082e+02
  1.401063e+01    6.996952e+02
  1.403342e+01    6.985757e+02
  1.405620e+01    6.974351e+02
  1.407898e+01    6.963425e+02
  1.410176e+01    6.953830e+02
  1.412455e+01    6.944543e+02
  1.414733e+01    6.935535e+02
  1.417011e+01    6.926505e+02
  1.419290e+01    6.917435e+02
  1.421568e+01    6.908596e+02
  1.423846e+01    6.899230e+02
  1.426124e+01    6.889592e+02
  1.428403e+01    6.880054e+02
  1.430681e+01    6.869701e+02
  1.432959e+01    6.858931e+02
  1.435238e+01    6.848384e+02
  1.437516e+01    6.838011e+02
  1.439794e+01    6.828948e+02
  1.442072e+01    6.820425e+02
  1.444351e+01    6.811787e+02
  1.446629e+01    6.802728e+02
  1.448907e+01    6.795364e+02
  1.451186e+01    6.788290e+02
  1.453464e+01    6.780061e+02
  1.455742e+01    6.772063e+02
  1.458020e+01    6.764124e+02
  1.460299e+01    6.755953e+02
  1.462577e+01    6.747566e+02
  1.464855e+01    6.739347e+02
  1.467133e+01    6.730847e+02
  1.469412e+01    6.722507e+02
  1.471690e+01    6.713732e+02
  1.473968e+01    6.704800e+02
  1.476247e+01    6.697147e+02
  1.478525e+01    6.689163e+02
  1.480803e+01    6.681637e+02
  1.483081e+01    6.674188e+02
  1.485360e+01    6.666429e+02
  1.487638e+01    6.658865e+02
  1.489916e+01    6.651866e+02
  1.492195e+01    6.644090e+02
  1.494473e+01    6.636109e+02
  1.496751e+01    6.628450e+02
  1.499029e+01    6.620015e+02
  1.501308e+01    6.612276e+02
  1.503586e+01    6.607529e+02
  1.505864e+01    6.598290e+02
  1.508142e+01    6.590161e+02
  1.510421e+01    6.580739e+02
  1.512699e+01    6.570710e+02
  1.514977e+01    6.561613e+02
  1.517256e+01    6.553125e+02
  1.519534e+01    6.545354e+02
  1.521812e+01    6.537310e+02
  1.524090e+01    6.529402e+02
  1.526369e+01    6.521396e+02
  1.528647e+01    6.513529e+02
  1.530925e+01    6.505186e+02
  1.533204e+01    6.496808e+02
  1.535482e+01    6.488616e+02
  1.537760e+01    6.479766e+02
  1.540038e+01    6.471365e+02
  1.542317e+01    6.463655e+02
  1.544595e+01    6.455307e+02
  1.546873e+01    6.446335e+02
  1.549152e+01    6.436986e+02
  1.551430e+01    6.428270e+02
  1.553708e+01    6.420425e+02
  1.555986e+01    6.412141e+02
  1.558265e+01    6.404943e+02
  1.560543e+01    6.396434e+02
  1.562821e+01    6.388350e+02
  1.565099e+01    6.379962e+02
  1.567378e+01    6.371260e+02
  1.569656e+01    6.362625e+02
  1.571934e+01    6.353258e+02
  1.574213e+01    6.344112e+02
  1.576491e+01    6.335211e+02
  1.578769e+01    6.326724e+02
  1.581047e+01    6.318030e+02
  1.583326e+01    6.309938e+02
  1.585604e+01    6.301687e+02
  1.587882e+01    6.292352e+02
  1.590161e+01    6.284759e+02
  1.592439e+01    6.276734e+02
  1.594717e+01    6.269219e+02
  1.596995e+01    6.260974e+02
  1.599274e+01    6.253160e+02
  1.601552e+01    6.246024e+02
  1.603830e+01    6.238323e+02
  1.606109e+01    6.230201e+02
  1.608387e+01    6.223887e+02
  1.610665e+01    6.216435e+02
  1.612943e+01    6.209587e+02
  1.615222e+01    6.202514e+02
  1.617500e+01    6.194344e+02
  1.619778e+01    6.186858e+02
  1.622056e+01    6.178819e+02
  1.624335e+01    6.171637e+02
  1.626613e+01    6.165094e+02
  1.628891e+01    6.157570e+02
  1.631170e+01    6.151076e+02
  1.633448e+01    6.144192e+02
  1.635726e+01    6.138090e+02
  1.638004e+01    6.130904e+02
  1.640283e+01    6.123455e+02
  1.642561e+01    6.116143e+02
  1.644839e+01    6.108777e+02
  1.647118e+01    6.100799e+02
  1.649396e+01    6.092808e+02
  1.651674e+01    6.085668e+02
  1.653952e+01    6.079080e+02
  1.656231e+01    6.072048e+02
  1.658509e+01    6.063571e+02
  1.660787e+01    6.055297e+02
  1.663065e+01    6.047652e+02
  1.665344e+01    6.040773e+02
  1.667622e+01    6.033003e+02
  1.669900e+01    6.025129e+02
  1.672179e+01    6.017067e+02
  1.674457e+01    6.008006e+02
  1.676735e+01    6.000231e+02
  1.679013e+01    5.991272e+02
  1.681292e+01    5.981088e+02
  1.683570e+01    5.971885e+02
  1.685848e+01    5.963104e+02
  1.688127e+01    5.954293e+02
  1.690405e+01    5.944816e+02
  1.692683e+01    5.935819e+02
  1.694961e+01    5.925905e+02
  1.697240e+01    5.916014e+02
  1.699518e+01    5.906389e+02
  1.701796e+01    5.896873e+02
  1.704075e+01    5.886367e+02
  1.706353e+01    5.877135e+02
  1.708631e+01    5.866904e+02
  1.710909e+01    5.855793e+02
  1.713188e+01    5.844984e+02
  1.715466e+01    5.834297e+02
  1.717744e+01    5.824037e+02
  1.720022e+01    5.813135e+02
  1.722301e+01    5.802734e+02
  1.724579e+01    5.792830e+02
  1.726857e+01    5.782253e+02
  1.729136e+01    5.771683e+02
  1.731414e+01    5.762819e+02
  1.733692e+01    5.752731e+02
  1.735970e+01    5.741679e+02
  1.738249e+01    5.730505e+02
  1.740527e+01    5.719799e+02
  1.742805e+01    5.709347e+02
  1.745084e+01    5.698416e+02
  1.747362e+01    5.688475e+02
  1.749640e+01    5.677864e+02
  1.751918e+01    5.666873e+02
  1.754197e+01    5.655580e+02
  1.756475e+01    5.645431e+02
  1.758753e+01    5.635906e+02
  1.761032e+01    5.625524e+02
  1.763310e+01    5.615865e+02
  1.765588e+01    5.605182e+02
  1.767866e+01    5.595898e+02
  1.770145e+01    5.585972e+02
  1.772423e+01    5.575801e+02
  1.774701e+01    5.566563e+02
  1.776979e+01    5.557302e+02
  1.779258e+01    5.547946e+02
  1.781536e+01    5.538449e+02
  1.783814e+01    5.528748e+02
  1.786093e+01    5.519902e+02
  1.788371e+01    5.510773e+02
  1.790649e+01    5.501656e+02
  1.792927e+01    5.492654e+02
  1.795206e+01    5.483526e+02
  1.797484e+01    5.474885e+02
  1.799762e+01    5.466843e+02
  1.802041e+01    5.458933e+02
  1.804319e+01    5.450175e+02
  1.806597e+01    5.441491e+02
  1.808875e+01    5.433659e+02
  1.811154e+01    5.425065e+02
  1.813432e+01    5.416709e+02
  1.815710e+01    5.408841e+02
  1.817989e+01    5.400789e+02
  1.820267e+01    5.392629e+02
  1.822545e+01    5.385093e+02
  1.824823e+01    5.376942e+02
  1.827102e+01    5.368658e+02
  1.829380e+01    5.361185e+02
  1.831658e+01    5.354391e+02
  1.833936e+01    5.346570e+02
  1.836215e+01    5.338287e+02
  1.838493e+01    5.330137e+02
  1.840771e+01    5.323207e+02
  1.843050e+01    5.316620e+02
  1.845328e+01    5.308798e+02
  1.847606e+01    5.301475e+02
  1.849884e+01    5.294186e+02
  1.852163e+01    5.286836e+02
  1.854441e+01    5.279653e+02
  1.856719e+01    5.272017e+02
  1.858998e+01    5.265287e+02
  1.861276e+01    5.258780e+02
  1.863554e+01    5.251853e+02
  1.865832e+01    5.244499e+02
  1.868111e+01    5.236815e+02
  1.870389e+01    5.229990e+02
  1.872667e+01    5.224296e+02
  1.874945e+01    5.217697e+02
  1.877224e+01    5.211381e+02
  1.879502e+01    5.204409e+02
  1.881780e+01    5.197534e+02
  1.884059e+01    5.191208e+02
  1.886337e+01    5.184385e+02
  1.888615e+01    5.177814e+02
  1.890893e+01    5.171914e+02
  1.893172e+01    5.165092e+02
  1.895450e+01    5.158351e+02
  1.897728e+01    5.151838e+02
  1.900007e+01    5.144595e+02
  1.902285e+01    5.137946e+02
  1.904563e+01    5.131664e+02
  1.906841e+01    5.124770e+02
  1.909120e+01    5.118102e+02
  1.911398e+01    5.111213e+02
  1.913676e+01    5.104849e+02
  1.915955e+01    5.097811e+02
  1.918233e+01    5.090955e+02
  1.920511e+01    5.084435e+02
  1.922789e+01    5.077852e+02
  1.925068e+01    5.071536e+02
  1.927346e+01    5.064172e+02
  1.929624e+01    5.057750e+02
  1.931902e+01    5.050760e+02
  1.934181e+01    5.043688e+02
  1.936459e+01    5.036636e+02
  1.938737e+01    5.029677e+02
  1.941016e+01    5.023490e+02
  1.943294e+01    5.016670e+02
  1.945572e+01    5.010169e+02
  1.947850e+01    5.002901e+02
  1.950129e+01    4.995860e+02
  1.952407e+01    4.989344e+02
  1.954685e+01    4.982383e+02
  1.956964e+01    4.975818e+02
  1.959242e+01    4.969381e+02
  1.961520e+01    4.962277e+02
  1.963798e+01    4.955446e+02
  1.966077e+01    4.948924e+02
  1.968355e+01    4.941705e+02
  1.970633e+01    4.934532e+02
  1.972912e+01    4.927454e+02
  1.975190e+01    4.920137e+02
  1.977468e+01    4.912797e+02
  1.979746e+01    4.905870e+02
  1.982025e+01    4.898792e+02
  1.984303e+01    4.891823e+02
  1.986581e+01    4.885118e+02
  1.988859e+01    4.877815e+02
  1.991138e+01    4.870188e+02
  1.993416e+01    4.862784e+02
  1.995694e+01    4.855128e+02
  1.997973e+01    4.847758e+02
  2.000251e+01    4.840616e+02
  2.002529e+01    4.833298e+02
  2.004807e+01    4.826120e+02
  2.007086e+01    4.818084e+02
  2.009364e+01    4.809958e+02
  2.011642e+01    4.802278e+02
  2.013921e+01    4.794843e+02
  2.016199e+01    4.787066e+02
  2.018477e+01    4.779311e+02
  2.020755e+01    4.770986e+02
  2.023034e+01    4.763389e+02
  2.025312e+01    4.755674e+02
  2.027590e+01    4.747906e+02
  2.029868e+01    4.739507e+02
  2.032147e+01    4.731015e+02
  2.034425e+01    4.722922e+02
  2.036703e+01    4.715304e+02
  2.038982e+01    4.707951e+02
  2.041260e+01    4.699752e+02
  2.043538e+01    4.692405e+02
  2.045816e+01    4.684487e+02
  2.048095e+01    4.677007e+02
  2.050373e+01    4.669705e+02
  2.052651e+01    4.662352e+02
  2.054930e+01    4.655195e+02
  2.057208e+01    4.647891e+02
  2.059486e+01    4.640258e+02
  2.061764e+01    4.632975e+02
  2.064043e+01    4.625607e+02
  2.066321e+01    4.618308e+02
  2.068599e+01    4.611033e+02
  2.070878e+01    4.603776e+02
  2.073156e+01    4.595985e+02
  2.075434e+01    4.588294e+02
  2.077712e+01    4.581093e+02
  2.079991e+01    4.573791e+02
  2.082269e+01    4.566444e+02
  2.084547e+01    4.558609e+02
  2.086825e+01    4.550728e+02
  2.089104e+01    4.543631e+02
  2.091382e+01    4.536318e+02
  2.093660e+01    4.529095e+02
  2.095939e+01    4.521730e+02
  2.098217e+01    4.513759e+02
  2.100495e+01    4.506368e+02
  2.102773e+01    4.499213e+02
  2.105052e+01    4.491515e+02
  2.107330e+01    4.483474e+02
  2.109608e+01    4.475583e+02
  2.111887e+01    4.468271e+02
  2.114165e+01    4.461037e+02
  2.116443e+01    4.453051e+02
  2.118721e+01    4.445816e+02
  2.121000e+01    4.438531e+02
  2.123278e+01    4.430875e+02
  2.125556e+01    4.423272e+02
  2.127835e+01    4.415912e+02
  2.130113e+01    4.408276e+02
  2.132391e+01    4.401371e+02
  2.134669e+01    4.393800e+02
  2.136948e+01    4.386218e+02
  2.139226e+01    4.378607e+02
  2.141504e+01    4.372905e+02
  2.143782e+01    4.368392e+02
  2.146061e+01    4.358964e+02
  2.148339e+01    4.351129e+02
  2.150617e+01    4.344041e+02
  2.152896e+01    4.336339e+02
  2.155174e+01    4.328633e+02
  2.157452e+01    4.320948e+02
  2.159730e+01    4.313152e+02
  2.162009e+01    4.305671e+02
  2.164287e+01    4.298042e+02
  2.166565e+01    4.290443e+02
  2.168844e+01    4.282897e+02
  2.171122e+01    4.275748e+02
  2.173400e+01    4.267895e+02
  2.175678e+01    4.260552e+02
  2.177957e+01    4.253015e+02
  2.180235e+01    4.245643e+02
  2.182513e+01    4.238389e+02
  2.184791e+01    4.231270e+02
  2.187070e+01    4.224237e+02
  2.189348e+01    4.217195e+02
  2.191626e+01    4.210079e+02
  2.193905e+01    4.202553e+02
  2.196183e+01    4.195794e+02
  2.198461e+01    4.188527e+02
  2.200739e+01    4.181527e+02
  2.203018e+01    4.174449e+02
  2.205296e+01    4.167155e+02
  2.207574e+01    4.160139e+02
  2.209853e+01    4.152833e+02
  2.212131e+01    4.145824e+02
  2.214409e+01    4.138605e+02
  2.216687e+01    4.131206e+02
  2.218966e+01    4.124476e+02
  2.221244e+01    4.117392e+02
  2.223522e+01    4.110830e+02
  2.225801e+01    4.103537e+02
  2.228079e+01    4.096576e+02
  2.230357e+01    4.089649e+02
  2.232635e+01    4.082735e+02
  2.234914e+01    4.075501e+02
  2.237192e+01    4.068470e+02
  2.239470e+01    4.061395e+02
  2.241748e+01    4.054583e+02
  2.244027e+01    4.047729e+02
  2.246305e+01    4.041154e+02
  2.248583e+01    4.034312e+02
  2.250862e+01    4.027486e+02
  2.253140e+01    4.020990e+02
  2.255418e+01    4.013976e+02
  2.257696e+01    4.007059e+02
  2.259975e+01    4.000618e+02
  2.262253e+01    3.993853e+02
  2.264531e+01    3.987056e+02
  2.266810e+01    3.980347e+02
  2.269088e+01    3.973930e+02
  2.271366e+01    3.967302e+02
  2.273644e+01    3.960935e+02
  2.275923e+01    3.954612e+02
  2.278201e+01    3.948064e+02
  2.280479e+01    3.941232e+02
  2.282758e+01    3.934369e+02
  2.285036e+01    3.927729e+02
  2.287314e+01    3.921897e+02
  2.289592e+01    3.915667e+02
  2.291871e+01    3.908979e+02
  2.294149e+01    3.902330e+02
  2.296427e+01    3.895751e+02
  2.298705e+01    3.889037e+02
  2.300984e+01    3.882511e+02
  2.303262e+01    3.876151e+02
  2.305540e+01    3.869933e+02
  2.307819e+01    3.863103e+02
  2.310097e+01    3.856439e+02
  2.312375e+01    3.849640e+02
  2.314653e+01    3.842987e+02
  2.316932e+01    3.836632e+02
  2.319210e+01    3.829991e+02
  2.321488e+01    3.823331e+02
  2.323767e+01    3.817174e+02
  2.326045e+01    3.810655e+02
  2.328323e+01    3.804034e+02
  2.330601e+01    3.797651e+02
  2.332880e+01    3.790966e+02
  2.335158e+01    3.784987e+02
  2.337436e+01    3.778397e+02
  2.339714e+01    3.771592e+02
  2.341993e+01    3.765708e+02
  2.344271e+01    3.759144e+02
  2.346549e+01    3.752306e+02
  2.348828e+01    3.745887e+02
  2.351106e+01    3.739420e+02
  2.353384e+01    3.733008e+02
  2.355662e+01    3.727007e+02
  2.357941e+01    3.720524e+02
  2.360219e+01    3.713621e+02
  2.362497e+01    3.706765e+02
  2.364776e+01    3.700775e+02
  2.367054e+01    3.694017e+02
  2.369332e+01    3.689627e+02
  2.371610e+01    3.684444e+02
  2.373889e+01    3.676546e+02
  2.376167e+01    3.668917e+02
  2.378445e+01    3.662195e+02
  2.380724e+01    3.655129e+02
  2.383002e+01    3.648633e+02
  2.385280e+01    3.641422e+02
  2.387558e+01    3.635022e+02
  2.389837e+01    3.628715e+02
  2.392115e+01    3.621939e+02
  2.394393e+01    3.614902e+02
  2.396671e+01    3.608036e+02
  2.398950e+01    3.601240e+02
  2.401228e+01    3.594677e+02
  2.403506e+01    3.588260e+02
  2.405785e+01    3.581324e+02
  2.408063e+01    3.574868e+02
  2.410341e+01    3.568396e+02
  2.412619e+01    3.561554e+02
  2.414898e+01    3.555427e+02
  2.417176e+01    3.548855e+02
  2.419454e+01    3.542335e+02
  2.421733e+01    3.535441e+02
  2.424011e+01    3.528616e+02
  2.426289e+01    3.521947e+02
  2.428567e+01    3.515576e+02
  2.430846e+01    3.509148e+02
  2.433124e+01    3.502332e+02
  2.435402e+01    3.495315e+02
  2.437681e+01    3.488601e+02
  2.439959e+01    3.482251e+02
  2.442237e+01    3.475522e+02
  2.444515e+01    3.468777e+02
  2.446794e+01    3.461925e+02
  2.449072e+01    3.455369e+02
  2.451350e+01    3.448882e+02
  2.453628e+01    3.441856e+02
  2.455907e+01    3.435308e+02
  2.458185e+01    3.428875e+02
  2.460463e+01    3.422189e+02
  2.462742e+01    3.415277e+02
  2.465020e+01    3.408701e+02
  2.467298e+01    3.401880e+02
  2.469576e+01    3.395237e+02
  2.471855e+01    3.388280e+02
  2.474133e+01    3.381631e+02
  2.476411e+01    3.375122e+02
  2.478690e+01    3.368608e+02
  2.480968e+01    3.361928e+02
  2.483246e+01    3.355735e+02
  2.485524e+01    3.348664e+02
  2.487803e+01    3.341912e+02
  2.490081e+01    3.335357e+02
  2.492359e+01    3.327925e+02
  2.494637e+01    3.320711e+02
  2.496916e+01    3.314678e+02
  2.499194e+01    3.308257e+02
  2.501472e+01    3.301351e+02
  2.503751e+01    3.295213e+02
  2.506029e+01    3.288143e+02
  2.508307e+01    3.281715e+02
  2.510585e+01    3.275118e+02
  2.512864e+01    3.268291e+02
  2.515142e+01    3.261574e+02
  2.517420e+01    3.254657e+02
  2.519699e+01    3.248254e+02
  2.521977e+01    3.241371e+02
  2.524255e+01    3.235313e+02
  2.526533e+01    3.229143e+02
  2.528812e+01    3.222319e+02
  2.531090e+01    3.215345e+02
  2.533368e+01    3.208480e+02
  2.535647e+01    3.203114e+02
  2.537925e+01    3.196827e+02
  2.540203e+01    3.190427e+02
  2.542481e+01    3.183840e+02
  2.544760e+01    3.177616e+02
  2.547038e+01    3.171281e+02
  2.549316e+01    3.165018e+02
  2.551594e+01    3.158551e+02
  2.553873e+01    3.152275e+02
  2.556151e+01    3.146245e+02
  2.558429e+01    3.139426e+02
  2.560708e+01    3.133090e+02
  2.562986e+01    3.126783e+02
  2.565264e+01    3.120501e+02
  2.567542e+01    3.114475e+02
  2.569821e+01    3.108199e+02
  2.572099e+01    3.102120e+02
  2.574377e+01    3.095790e+02
  2.576656e+01    3.089293e+02
  2.578934e+01    3.083347e+02
  2.581212e+01    3.077146e+02
  2.583490e+01    3.071543e+02
  2.585769e+01    3.064579e+02
  2.588047e+01    3.058463e+02
  2.590325e+01    3.052162e+02
  2.592604e+01    3.045681e+02
  2.594882e+01    3.039130e+02
  2.597160e+01    3.033614e+02
  2.599438e+01    3.027442e+02
  2.601717e+01    3.021312e+02
  2.603995e+01    3.014976e+02
  2.606273e+01    3.008856e+02
  2.608551e+01    3.003221e+02
  2.610830e+01    2.996804e+02
  2.613108e+01    2.990528e+02
  2.615386e+01    2.984213e+02
  2.617665e+01    2.978318e+02
  2.619943e+01    2.972188e+02
  2.622221e+01    2.965647e+02
  2.624499e+01    2.959666e+02
  2.626778e+01    2.953600e+02
  2.629056e+01    2.948361e+02
  2.631334e+01    2.942284e+02
  2.633613e+01    2.935874e+02
  2.635891e+01    2.929729e+02
  2.638169e+01    2.923734e+02
  2.640447e+01    2.917181e+02
  2.642726e+01    2.911215e+02
  2.645004e+01    2.904702e+02
  2.647282e+01    2.898582e+02
  2.649560e+01    2.892531e+02
  2.651839e+01    2.886430e+02
  2.654117e+01    2.880638e+02
  2.656395e+01    2.874257e+02
  2.658674e+01    2.868197e+02
  2.660952e+01    2.862214e+02
  2.663230e+01    2.856086e+02
  2.665508e+01    2.850253e+02
  2.667787e+01    2.844295e+02
  2.670065e+01    2.838111e+02
  2.672343e+01    2.832108e+02
  2.674622e+01    2.826510e+02
  2.676900e+01    2.820806e+02
  2.679178e+01    2.814655e+02
  2.681456e+01    2.808302e+02
  2.683735e+01    2.802296e+02
  2.686013e+01    2.796480e+02
  2.688291e+01    2.790056e+02
  2.690570e+01    2.784051e+02
  2.692848e+01    2.778451e+02
  2.695126e+01    2.772175e+02
  2.697404e+01    2.766073e+02
  2.699683e+01    2.760238e+02
  2.701961e+01    2.754143e+02
  2.704239e+01    2.747851e+02
  2.706517e+01    2.741708e+02
  2.708796e+01    2.735453e+02
  2.711074e+01    2.729389e+02
  2.713352e+01    2.723336e+02
  2.715631e+01    2.717579e+02
  2.717909e+01    2.711435e+02
  2.720187e+01    2.708086e+02
  2.722465e+01    2.710949e+02
  2.724744e+01    2.709710e+02
  2.727022e+01    2.707802e+02
  2.729300e+01    2.704641e+02
  2.731579e+01    2.701213e+02
  2.733857e+01    2.697522e+02
  2.736135e+01    2.693868e+02
  2.738413e+01    2.689790e+02
  2.740692e+01    2.684836e+02
  2.742970e+01    2.675560e+02
  2.745248e+01    2.667366e+02
  2.747527e+01    2.659500e+02
  2.749805e+01    2.652430e+02
  2.752083e+01    2.645362e+02
  2.754361e+01    2.638445e+02
  2.756640e+01    2.632212e+02
  2.758918e+01    2.624525e+02
  2.761196e+01    2.610159e+02
  2.763474e+01    2.597925e+02
  2.765753e+01    2.586865e+02
  2.768031e+01    2.576676e+02
  2.770309e+01    2.567182e+02
  2.772588e+01    2.557319e+02
  2.774866e+01    2.548111e+02
  2.777144e+01    2.539181e+02
  2.779422e+01    2.535882e+02
  2.781701e+01    2.537403e+02
  2.783979e+01    2.534625e+02
  2.786257e+01    2.531023e+02
  2.788536e+01    2.527371e+02
  2.790814e+01    2.522694e+02
  2.793092e+01    2.517046e+02
  2.795370e+01    2.512297e+02
  2.797649e+01    2.507256e+02
  2.799927e+01    2.502339e+02
  2.802205e+01    2.497433e+02
  2.804483e+01    2.491975e+02
  2.806762e+01    2.486670e+02
  2.809040e+01    2.481763e+02
  2.811318e+01    2.476511e+02
  2.813597e+01    2.471012e+02
  2.815875e+01    2.465352e+02
  2.818153e+01    2.459594e+02
  2.820431e+01    2.454186e+02
  2.822710e+01    2.448809e+02
  2.824988e+01    2.444027e+02
  2.827266e+01    2.438251e+02
  2.829545e+01    2.432324e+02
  2.831823e+01    2.426972e+02
  2.834101e+01    2.421552e+02
  2.836379e+01    2.415687e+02
  2.838658e+01    2.410457e+02
  2.840936e+01    2.404936e+02
  2.843214e+01    2.399495e+02
  2.845493e+01    2.393876e+02
  2.847771e+01    2.388172e+02
  2.850049e+01    2.382416e+02
  2.852327e+01    2.377118e+02
  2.854606e+01    2.371643e+02
  2.856884e+01    2.365749e+02
  2.859162e+01    2.360190e+02
  2.861440e+01    2.354839e+02
  2.863719e+01    2.349329e+02
  2.865997e+01    2.344094e+02
  2.868275e+01    2.338180e+02
  2.870554e+01    2.332750e+02
  2.872832e+01    2.327056e+02
  2.875110e+01    2.321470e+02
  2.877388e+01    2.315907e+02
  2.879667e+01    2.310289e+02
  2.881945e+01    2.304717e+02
  2.884223e+01    2.298826e+02
  2.886502e+01    2.292791e+02
  2.888780e+01    2.287506e+02
  2.891058e+01    2.281912e+02
  2.893336e+01    2.276905e+02
  2.895615e+01    2.271560e+02
  2.897893e+01    2.265869e+02
  2.900171e+01    2.260606e+02
  2.902450e+01    2.254865e+02
  2.904728e+01    2.249242e+02
  2.907006e+01    2.243466e+02
  2.909284e+01    2.238040e+02
  2.911563e+01    2.232659e+02
  2.913841e+01    2.227269e+02
  2.916119e+01    2.221432e+02
  2.918397e+01    2.215978e+02
  2.920676e+01    2.210098e+02
  2.922954e+01    2.204763e+02
  2.925232e+01    2.199527e+02
  2.927511e+01    2.193421e+02
  2.929789e+01    2.188725e+02
  2.932067e+01    2.183250e+02
  2.934345e+01    2.177441e+02
  2.936624e+01    2.171874e+02
  2.938902e+01    2.166413e+02
  2.941180e+01    2.160756e+02
  2.943459e+01    2.154926e+02
  2.945737e+01    2.149739e+02
  2.948015e+01    2.144238e+02
  2.950293e+01    2.139785e+02
  2.952572e+01    2.134224e+02
  2.954850e+01    2.128549e+02
  2.957128e+01    2.123311e+02
  2.959407e+01    2.117685e+02
  2.961685e+01    2.112589e+02
  2.963963e+01    2.107238e+02
  2.966241e+01    2.102122e+02
  2.968520e+01    2.096308e+02
  2.970798e+01    2.091723e+02
  2.973076e+01    2.086323e+02
  2.975354e+01    2.080716e+02
  2.977633e+01    2.075029e+02
  2.979911e+01    2.069811e+02
  2.982189e+01    2.064775e+02
  2.984468e+01    2.059548e+02
  2.986746e+01    2.053974e+02
  2.989024e+01    2.048873e+02
  2.991302e+01    2.043517e+02
  2.993581e+01    2.038732e+02
  2.995859e+01    2.033481e+02
  2.998137e+01    2.028671e+02
  3.000416e+01    2.022935e+02
  3.002694e+01    2.018187e+02
  3.004972e+01    2.012219e+02
  3.007250e+01    2.006859e+02
  3.009529e+01    2.001838e+02
  3.011807e+01    1.996290e+02
  3.014085e+01    1.991005e+02
  3.016363e+01    1.986230e+02
  3.018642e+01    1.981566e+02
  3.020920e+01    1.976593e+02
  3.023198e+01    1.970751e+02
  3.025477e+01    1.966138e+02
  3.027755e+01    1.960932e+02
  3.030033e+01    1.955494e+02
  3.032311e+01    1.949991e+02
  3.034590e+01    1.945088e+02
  3.036868e+01    1.941450e+02
  3.039146e+01    1.936341e+02
  3.041425e+01    1.930699e+02
  3.043703e+01    1.925951e+02
  3.045981e+01    1.920281e+02
  3.048259e+01    1.915157e+02
  3.050538e+01    1.910168e+02
  3.052816e+01    1.905993e+02
  3.055094e+01    1.901636e+02
  3.057373e+01    1.895763e+02
  3.059651e+01    1.890692e+02
  3.061929e+01    1.885021e+02
  3.064207e+01    1.880851e+02
  3.066486e+01    1.874728e+02
  3.068764e+01    1.871026e+02
  3.071042e+01    1.866098e+02
  3.073320e+01    1.860190e+02
  3.075599e+01    1.856013e+02
  3.077877e+01    1.850939e+02
  3.080155e+01    1.846363e+02
  3.082434e+01    1.840732e+02
  3.084712e+01    1.835363e+02
  3.086990e+01    1.831312e+02
  3.089268e+01    1.826478e+02
  3.091547e+01    1.820691e+02
  3.093825e+01    1.816063e+02
  3.096103e+01    1.811292e+02
  3.098382e+01    1.806725e+02
  3.100660e+01    1.801203e+02
  3.102938e+01    1.796357e+02
  3.105216e+01    1.791264e+02
  3.107495e+01    1.787152e+02
  3.109773e+01    1.783606e+02
  3.112051e+01    1.778753e+02
  3.114330e+01    1.773351e+02
  3.116608e+01    1.767299e+02
  3.118886e+01    1.762895e+02
  3.121164e+01    1.759254e+02
  3.123443e+01    1.753973e+02
  3.125721e+01    1.749718e+02
  3.127999e+01    1.743438e+02
  3.130277e+01    1.738871e+02
  3.132556e+01    1.733772e+02
  3.134834e+01    1.730055e+02
  3.137112e+01    1.726748e+02
  3.139391e+01    1.720889e+02
  3.141669e+01    1.716590e+02
  3.143947e+01    1.711689e+02
  3.146225e+01    1.707211e+02
  3.148504e+01    1.702191e+02
  3.150782e+01    1.697071e+02
  3.153060e+01    1.694029e+02
  3.155339e+01    1.688914e+02
  3.157617e+01    1.684120e+02
  3.159895e+01    1.679203e+02
  3.162173e+01    1.674993e+02
  3.164452e+01    1.670360e+02
  3.166730e+01    1.665295e+02
  3.169008e+01    1.660940e+02
  3.171286e+01    1.656475e+02
  3.173565e+01    1.652275e+02
  3.175843e+01    1.646673e+02
  3.178121e+01    1.642005e+02
  3.180400e+01    1.638584e+02
  3.182678e+01    1.632430e+02
  3.184956e+01    1.627041e+02
  3.187234e+01    1.621217e+02
  3.189513e+01    1.620078e+02
  3.191791e+01    1.614129e+02
  3.194069e+01    1.610598e+02
  3.196348e+01    1.605244e+02
  3.198626e+01    1.600574e+02
  3.200904e+01    1.594126e+02
  3.203182e+01    1.590615e+02
  3.205461e+01    1.586824e+02
  3.207739e+01    1.582623e+02
  3.210017e+01    1.576333e+02
  3.212296e+01    1.572340e+02
  3.214574e+01    1.567369e+02
  3.216852e+01    1.562795e+02
  3.219130e+01    1.557965e+02
  3.221409e+01    1.553459e+02
  3.223687e+01    1.548187e+02
  3.225965e+01    1.543919e+02
  3.228243e+01    1.539268e+02
  3.230522e+01    1.533587e+02
  3.232800e+01    1.528792e+02
  3.235078e+01    1.523544e+02
  3.237357e+01    1.518851e+02
  3.239635e+01    1.514214e+02
  3.241913e+01    1.508996e+02
  3.244191e+01    1.503337e+02
  3.246470e+01    1.499943e+02
  3.248748e+01    1.494432e+02
  3.251026e+01    1.488202e+02
  3.253305e+01    1.484285e+02
  3.255583e+01    1.479006e+02
  3.257861e+01    1.473641e+02
  3.260139e+01    1.468121e+02
  3.262418e+01    1.462222e+02
  3.264696e+01    1.458348e+02
  3.266974e+01    1.452561e+02
  3.269253e+01    1.449010e+02
  3.271531e+01    1.443763e+02
  3.273809e+01    1.438990e+02
  3.276087e+01    1.434147e+02
  3.278366e+01    1.429598e+02
  3.280644e+01    1.422948e+02
  3.282922e+01    1.418297e+02
  3.285200e+01    1.413509e+02
  3.287479e+01    1.409204e+02
  3.289757e+01    1.402542e+02
  3.292035e+01    1.397709e+02
  3.294314e+01    1.391755e+02
  3.296592e+01    1.386472e+02
  3.298870e+01    1.382424e+02
  3.301148e+01    1.376482e+02
  3.303427e+01    1.369329e+02
  3.305705e+01    1.363581e+02
  3.307983e+01    1.359870e+02
  3.310262e+01    1.352964e+02
  3.312540e+01    1.346994e+02
  3.314818e+01    1.339910e+02
  3.317096e+01    1.333720e+02
  3.319375e+01    1.326986e+02
  3.321653e+01    1.321396e+02
  3.323931e+01    1.317570e+02
  3.326209e+01    1.309289e+02
  3.328488e+01    1.303059e+02
  3.330766e+01    1.296889e+02
  3.333044e+01    1.292251e+02
  3.335323e+01    1.285328e+02
  3.337601e+01    1.278306e+02
  3.339879e+01    1.270983e+02
  3.342157e+01    1.269260e+02
  3.344436e+01    1.270156e+02
  3.346714e+01    1.257108e+02
  3.348992e+01    1.257939e+02
  3.351271e+01    1.229013e+02
  3.353549e+01    0.000000e+00
  3.355827e+01    0.000000e+00
  3.358105e+01    0.000000e+00
  3.360384e+01    0.000000e+00
  3.362662e+01    0.000000e+00
  3.364940e+01    0.000000e+00
  3.367219e+01    0.000000e+00
  3.369497e+01    0.000000e+00
  3.371775e+01    0.000000e+00
