# == pyFAI calibration ==
# Distance Sample to Detector: 0.21311058206280517 m
# PONI: 2.037e-01, 1.993e-01 m
# Rotations: -0.005459 0.000134 0.000000 rad
# 
# == Fit2d calibration ==
# Distance Sample-beamCenter: 213.114 mm
# Center: x=1002.134, y=1018.730 pix
# Tilt: 0.313 deg  TiltPlanRot: 1.411 deg
# 
# Detector Perkin detector	 PixelSize= 2.000e-04, 2.000e-04 m
#    Detector has a mask: False 
#    Detector has a dark current: False 
#    detector has a flat field: False 
# 
# Wavelength: 1.675e-11 m
# Mask applied: provided
# Dark current applied: False
# Flat field applied: False
# Polarization factor: None
# Normalization factor: 1.0
# --> data/chi_bkgsub_false/C_Tatania1-48.0-average.chi
#        q_A^-1             I 
  2.199784e-02    1.264993e+02
  4.478064e-02    1.266325e+02
  6.756343e-02    1.272782e+02
  9.034623e-02    1.286797e+02
  1.131290e-01    1.300049e+02
  1.359118e-01    1.316846e+02
  1.586946e-01    1.350880e+02
  1.814774e-01    1.398564e+02
  2.042602e-01    1.455764e+02
  2.270430e-01    1.569306e+02
  2.498258e-01    1.779745e+02
  2.726086e-01    2.144633e+02
  2.953914e-01    4.084720e+02
  3.181742e-01    6.465875e+02
  3.409570e-01    1.036169e+03
  3.637398e-01    1.461774e+03
  3.865226e-01    1.188544e+03
  4.093054e-01    8.829988e+02
  4.320881e-01    7.119662e+02
  4.548709e-01    6.350835e+02
  4.776537e-01    6.829417e+02
  5.004365e-01    7.297059e+02
  5.232193e-01    7.660826e+02
  5.460021e-01    8.145912e+02
  5.687849e-01    8.777426e+02
  5.915677e-01    9.459119e+02
  6.143505e-01    1.035602e+03
  6.371333e-01    1.164774e+03
  6.599161e-01    1.283117e+03
  6.826989e-01    1.402170e+03
  7.054817e-01    1.508485e+03
  7.282645e-01    1.592338e+03
  7.510473e-01    1.657671e+03
  7.738301e-01    1.704714e+03
  7.966129e-01    1.747719e+03
  8.193956e-01    1.791900e+03
  8.421784e-01    1.835557e+03
  8.649612e-01    1.882837e+03
  8.877440e-01    1.935137e+03
  9.105268e-01    1.987294e+03
  9.333096e-01    2.044182e+03
  9.560924e-01    2.106406e+03
  9.788752e-01    2.170410e+03
  1.001658e+00    2.240657e+03
  1.024441e+00    2.314827e+03
  1.047224e+00    2.393229e+03
  1.070006e+00    2.479265e+03
  1.092789e+00    2.569890e+03
  1.115572e+00    2.665050e+03
  1.138355e+00    2.769650e+03
  1.161138e+00    2.878375e+03
  1.183920e+00    2.993819e+03
  1.206703e+00    3.118582e+03
  1.229486e+00    3.244877e+03
  1.252269e+00    3.381333e+03
  1.275052e+00    3.526700e+03
  1.297834e+00    3.665729e+03
  1.320617e+00    3.815401e+03
  1.343400e+00    3.971439e+03
  1.366183e+00    4.125208e+03
  1.388966e+00    4.285355e+03
  1.411748e+00    4.444413e+03
  1.434531e+00    4.601636e+03
  1.457314e+00    4.757537e+03
  1.480097e+00    4.898868e+03
  1.502879e+00    5.035397e+03
  1.525662e+00    5.164720e+03
  1.548445e+00    5.277522e+03
  1.571228e+00    5.376380e+03
  1.594011e+00    5.462350e+03
  1.616793e+00    5.536920e+03
  1.639576e+00    5.589931e+03
  1.662359e+00    5.625200e+03
  1.685142e+00    5.652066e+03
  1.707925e+00    5.659422e+03
  1.730707e+00    5.653632e+03
  1.753490e+00    5.642228e+03
  1.776273e+00    5.618728e+03
  1.799056e+00    5.581185e+03
  1.821839e+00    5.526526e+03
  1.844621e+00    5.469369e+03
  1.867404e+00    5.415797e+03
  1.890187e+00    5.350145e+03
  1.912970e+00    5.286732e+03
  1.935753e+00    5.228366e+03
  1.958535e+00    5.170152e+03
  1.981318e+00    5.111544e+03
  2.004101e+00    5.053282e+03
  2.026884e+00    4.998790e+03
  2.049667e+00    4.940890e+03
  2.072449e+00    4.876264e+03
  2.095232e+00    4.818277e+03
  2.118015e+00    4.760975e+03
  2.140798e+00    4.705945e+03
  2.163581e+00    4.631107e+03
  2.186363e+00    4.539488e+03
  2.209146e+00    4.446963e+03
  2.231929e+00    4.348187e+03
  2.254712e+00    4.250322e+03
  2.277494e+00    4.155683e+03
  2.300277e+00    4.056931e+03
  2.323060e+00    3.954826e+03
  2.345843e+00    3.854828e+03
  2.368626e+00    3.752944e+03
  2.391408e+00    3.654113e+03
  2.414191e+00    3.555742e+03
  2.436974e+00    3.463206e+03
  2.459757e+00    3.379367e+03
  2.482540e+00    3.291762e+03
  2.505322e+00    3.196988e+03
  2.528105e+00    3.102698e+03
  2.550888e+00    3.016111e+03
  2.573671e+00    2.938572e+03
  2.596454e+00    2.870581e+03
  2.619236e+00    2.813863e+03
  2.642019e+00    2.763534e+03
  2.664802e+00    2.717260e+03
  2.687585e+00    2.680558e+03
  2.710368e+00    2.652573e+03
  2.733150e+00    2.636621e+03
  2.755933e+00    2.626147e+03
  2.778716e+00    2.622552e+03
  2.801499e+00    2.627645e+03
  2.824282e+00    2.633339e+03
  2.847064e+00    2.640145e+03
  2.869847e+00    2.649135e+03
  2.892630e+00    2.657817e+03
  2.915413e+00    2.662612e+03
  2.938196e+00    2.665515e+03
  2.960978e+00    2.664917e+03
  2.983761e+00    2.662419e+03
  3.006544e+00    2.658319e+03
  3.029327e+00    2.652718e+03
  3.052110e+00    2.645226e+03
  3.074892e+00    2.633452e+03
  3.097675e+00    2.619951e+03
  3.120458e+00    2.607082e+03
  3.143241e+00    2.594393e+03
  3.166023e+00    2.581157e+03
  3.188806e+00    2.566895e+03
  3.211589e+00    2.552050e+03
  3.234372e+00    2.537767e+03
  3.257155e+00    2.523711e+03
  3.279937e+00    2.511678e+03
  3.302720e+00    2.499445e+03
  3.325503e+00    2.487233e+03
  3.348286e+00    2.475596e+03
  3.371069e+00    2.464362e+03
  3.393851e+00    2.455182e+03
  3.416634e+00    2.447873e+03
  3.439417e+00    2.442656e+03
  3.462200e+00    2.443854e+03
  3.484983e+00    2.450207e+03
  3.507765e+00    2.453146e+03
  3.530548e+00    2.453303e+03
  3.553331e+00    2.449650e+03
  3.576114e+00    2.445750e+03
  3.598897e+00    2.444808e+03
  3.621679e+00    2.448674e+03
  3.644462e+00    2.457907e+03
  3.667245e+00    2.465923e+03
  3.690028e+00    2.473825e+03
  3.712811e+00    2.483094e+03
  3.735593e+00    2.493543e+03
  3.758376e+00    2.504233e+03
  3.781159e+00    2.514541e+03
  3.803942e+00    2.525725e+03
  3.826725e+00    2.536616e+03
  3.849507e+00    2.546044e+03
  3.872290e+00    2.556148e+03
  3.895073e+00    2.570810e+03
  3.917856e+00    2.582030e+03
  3.940638e+00    2.588874e+03
  3.963421e+00    2.599875e+03
  3.986204e+00    2.611665e+03
  4.008987e+00    2.622565e+03
  4.031770e+00    2.632961e+03
  4.054552e+00    2.646287e+03
  4.077335e+00    2.662726e+03
  4.100118e+00    2.672002e+03
  4.122901e+00    2.681560e+03
  4.145684e+00    2.687989e+03
  4.168466e+00    2.690300e+03
  4.191249e+00    2.690452e+03
  4.214032e+00    2.691074e+03
  4.236815e+00    2.695014e+03
  4.259598e+00    2.694212e+03
  4.282380e+00    2.686486e+03
  4.305163e+00    2.682113e+03
  4.327946e+00    2.676730e+03
  4.350729e+00    2.670162e+03
  4.373512e+00    2.662715e+03
  4.396294e+00    2.654610e+03
  4.419077e+00    2.644920e+03
  4.441860e+00    2.632979e+03
  4.464643e+00    2.622463e+03
  4.487426e+00    2.617831e+03
  4.510208e+00    2.602472e+03
  4.532991e+00    2.583167e+03
  4.555774e+00    2.568003e+03
  4.578557e+00    2.552359e+03
  4.601340e+00    2.535330e+03
  4.624122e+00    2.517643e+03
  4.646905e+00    2.502706e+03
  4.669688e+00    2.490018e+03
  4.692471e+00    2.465358e+03
  4.715253e+00    2.445690e+03
  4.738036e+00    2.428731e+03
  4.760819e+00    2.412097e+03
  4.783602e+00    2.395265e+03
  4.806385e+00    2.379071e+03
  4.829167e+00    2.368786e+03
  4.851950e+00    2.353591e+03
  4.874733e+00    2.335797e+03
  4.897516e+00    2.323777e+03
  4.920299e+00    2.312851e+03
  4.943081e+00    2.302677e+03
  4.965864e+00    2.291758e+03
  4.988647e+00    2.281335e+03
  5.011430e+00    2.271824e+03
  5.034213e+00    2.254195e+03
  5.056995e+00    2.241662e+03
  5.079778e+00    2.235610e+03
  5.102561e+00    2.219008e+03
  5.125344e+00    2.203803e+03
  5.148127e+00    2.191144e+03
  5.170909e+00    2.178598e+03
  5.193692e+00    2.164539e+03
  5.216475e+00    2.150586e+03
  5.239258e+00    2.139432e+03
  5.262041e+00    2.125214e+03
  5.284823e+00    2.104323e+03
  5.307606e+00    2.087667e+03
  5.330389e+00    2.071261e+03
  5.353172e+00    2.053473e+03
  5.375955e+00    2.034225e+03
  5.398737e+00    2.015052e+03
  5.421520e+00    1.998443e+03
  5.444303e+00    1.973243e+03
  5.467086e+00    1.949096e+03
  5.489869e+00    1.926958e+03
  5.512651e+00    1.905536e+03
  5.535434e+00    1.884819e+03
  5.558217e+00    1.864859e+03
  5.581000e+00    1.847563e+03
  5.603782e+00    1.828139e+03
  5.626565e+00    1.805510e+03
  5.649348e+00    1.787712e+03
  5.672131e+00    1.771257e+03
  5.694914e+00    1.750974e+03
  5.717696e+00    1.734389e+03
  5.740479e+00    1.719830e+03
  5.763262e+00    1.705932e+03
  5.786045e+00    1.692650e+03
  5.808828e+00    1.680962e+03
  5.831610e+00    1.672198e+03
  5.854393e+00    1.659308e+03
  5.877176e+00    1.646477e+03
  5.899959e+00    1.636331e+03
  5.922742e+00    1.626970e+03
  5.945524e+00    1.618162e+03
  5.968307e+00    1.609773e+03
  5.991090e+00    1.604022e+03
  6.013873e+00    1.597684e+03
  6.036656e+00    1.587533e+03
  6.059438e+00    1.581799e+03
  6.082221e+00    1.576851e+03
  6.105004e+00    1.566906e+03
  6.127787e+00    1.558951e+03
  6.150570e+00    1.552309e+03
  6.173352e+00    1.546945e+03
  6.196135e+00    1.538650e+03
  6.218918e+00    1.530917e+03
  6.241701e+00    1.525699e+03
  6.264484e+00    1.517956e+03
  6.287266e+00    1.509972e+03
  6.310049e+00    1.503250e+03
  6.332832e+00    1.496645e+03
  6.355615e+00    1.489513e+03
  6.378397e+00    1.482312e+03
  6.401180e+00    1.476436e+03
  6.423963e+00    1.470547e+03
  6.446746e+00    1.461983e+03
  6.469529e+00    1.454546e+03
  6.492311e+00    1.447145e+03
  6.515094e+00    1.439495e+03
  6.537877e+00    1.431870e+03
  6.560660e+00    1.424519e+03
  6.583443e+00    1.418048e+03
  6.606225e+00    1.409494e+03
  6.629008e+00    1.401321e+03
  6.651791e+00    1.395155e+03
  6.674574e+00    1.387442e+03
  6.697357e+00    1.379574e+03
  6.720139e+00    1.372736e+03
  6.742922e+00    1.366506e+03
  6.765705e+00    1.359463e+03
  6.788488e+00    1.352068e+03
  6.811271e+00    1.345632e+03
  6.834053e+00    1.339092e+03
  6.856836e+00    1.331377e+03
  6.879619e+00    1.324462e+03
  6.902402e+00    1.318197e+03
  6.925185e+00    1.312060e+03
  6.947967e+00    1.305782e+03
  6.970750e+00    1.300253e+03
  6.993533e+00    1.295355e+03
  7.016316e+00    1.289847e+03
  7.039099e+00    1.284748e+03
  7.061881e+00    1.279962e+03
  7.084664e+00    1.275212e+03
  7.107447e+00    1.270870e+03
  7.130230e+00    1.266887e+03
  7.153013e+00    1.263424e+03
  7.175795e+00    1.259762e+03
  7.198578e+00    1.256425e+03
  7.221361e+00    1.253653e+03
  7.244144e+00    1.251448e+03
  7.266926e+00    1.249609e+03
  7.289709e+00    1.247956e+03
  7.312492e+00    1.246802e+03
  7.335275e+00    1.246037e+03
  7.358058e+00    1.245651e+03
  7.380840e+00    1.245376e+03
  7.403623e+00    1.245020e+03
  7.426406e+00    1.244714e+03
  7.449189e+00    1.245124e+03
  7.471972e+00    1.246021e+03
  7.494754e+00    1.247201e+03
  7.517537e+00    1.248334e+03
  7.540320e+00    1.249982e+03
  7.563103e+00    1.251632e+03
  7.585886e+00    1.253247e+03
  7.608668e+00    1.254931e+03
  7.631451e+00    1.256902e+03
  7.654234e+00    1.258970e+03
  7.677017e+00    1.260491e+03
  7.699800e+00    1.261900e+03
  7.722582e+00    1.263546e+03
  7.745365e+00    1.264991e+03
  7.768148e+00    1.266479e+03
  7.790931e+00    1.268194e+03
  7.813714e+00    1.269573e+03
  7.836496e+00    1.270739e+03
  7.859279e+00    1.271890e+03
  7.882062e+00    1.272460e+03
  7.904845e+00    1.272550e+03
  7.927628e+00    1.272123e+03
  7.950410e+00    1.271730e+03
  7.973193e+00    1.271125e+03
  7.995976e+00    1.269724e+03
  8.018759e+00    1.268279e+03
  8.041541e+00    1.266521e+03
  8.064324e+00    1.264524e+03
  8.087107e+00    1.261993e+03
  8.109890e+00    1.259527e+03
  8.132673e+00    1.257251e+03
  8.155455e+00    1.253988e+03
  8.178238e+00    1.250749e+03
  8.201021e+00    1.247766e+03
  8.223804e+00    1.244725e+03
  8.246587e+00    1.241369e+03
  8.269369e+00    1.238182e+03
  8.292152e+00    1.234961e+03
  8.314935e+00    1.231395e+03
  8.337718e+00    1.227512e+03
  8.360501e+00    1.223928e+03
  8.383283e+00    1.220414e+03
  8.406066e+00    1.217063e+03
  8.428849e+00    1.213428e+03
  8.451632e+00    1.209561e+03
  8.474415e+00    1.205588e+03
  8.497197e+00    1.201729e+03
  8.519980e+00    1.197816e+03
  8.542763e+00    1.194088e+03
  8.565546e+00    1.190655e+03
  8.588329e+00    1.187267e+03
  8.611111e+00    1.183948e+03
  8.633894e+00    1.180335e+03
  8.656677e+00    1.176942e+03
  8.679460e+00    1.173580e+03
  8.702243e+00    1.170120e+03
  8.725025e+00    1.166949e+03
  8.747808e+00    1.163806e+03
  8.770591e+00    1.160804e+03
  8.793374e+00    1.157649e+03
  8.816156e+00    1.154007e+03
  8.838939e+00    1.150381e+03
  8.861722e+00    1.146645e+03
  8.884505e+00    1.143109e+03
  8.907288e+00    1.139591e+03
  8.930070e+00    1.135641e+03
  8.952853e+00    1.131793e+03
  8.975636e+00    1.128078e+03
  8.998419e+00    1.124257e+03
  9.021202e+00    1.120384e+03
  9.043984e+00    1.116616e+03
  9.066767e+00    1.112661e+03
  9.089550e+00    1.108617e+03
  9.112333e+00    1.104627e+03
  9.135116e+00    1.100387e+03
  9.157898e+00    1.095878e+03
  9.180681e+00    1.091228e+03
  9.203464e+00    1.086607e+03
  9.226247e+00    1.081973e+03
  9.249030e+00    1.077185e+03
  9.271812e+00    1.072745e+03
  9.294595e+00    1.068380e+03
  9.317378e+00    1.063845e+03
  9.340161e+00    1.059514e+03
  9.362944e+00    1.054916e+03
  9.385726e+00    1.050080e+03
  9.408509e+00    1.045369e+03
  9.431292e+00    1.040804e+03
  9.454075e+00    1.036255e+03
  9.476858e+00    1.031792e+03
  9.499640e+00    1.027450e+03
  9.522423e+00    1.022886e+03
  9.545206e+00    1.018065e+03
  9.567989e+00    1.013410e+03
  9.590772e+00    1.008887e+03
  9.613554e+00    1.004787e+03
  9.636337e+00    1.000589e+03
  9.659120e+00    9.965087e+02
  9.681903e+00    9.925347e+02
  9.704685e+00    9.886068e+02
  9.727468e+00    9.847628e+02
  9.750251e+00    9.810356e+02
  9.773034e+00    9.777944e+02
  9.795817e+00    9.742197e+02
  9.818599e+00    9.705883e+02
  9.841382e+00    9.669492e+02
  9.864165e+00    9.636475e+02
  9.886948e+00    9.606350e+02
  9.909731e+00    9.576353e+02
  9.932513e+00    9.548548e+02
  9.955296e+00    9.522844e+02
  9.978079e+00    9.495922e+02
  1.000086e+01    9.471204e+02
  1.002364e+01    9.446945e+02
  1.004643e+01    9.423643e+02
  1.006921e+01    9.401093e+02
  1.009199e+01    9.376986e+02
  1.011478e+01    9.354875e+02
  1.013756e+01    9.332236e+02
  1.016034e+01    9.310717e+02
  1.018312e+01    9.290361e+02
  1.020591e+01    9.268611e+02
  1.022869e+01    9.249048e+02
  1.025147e+01    9.230919e+02
  1.027426e+01    9.212617e+02
  1.029704e+01    9.196232e+02
  1.031982e+01    9.180510e+02
  1.034260e+01    9.164844e+02
  1.036539e+01    9.149061e+02
  1.038817e+01    9.132847e+02
  1.041095e+01    9.116710e+02
  1.043373e+01    9.100800e+02
  1.045652e+01    9.084949e+02
  1.047930e+01    9.067879e+02
  1.050208e+01    9.053328e+02
  1.052487e+01    9.038827e+02
  1.054765e+01    9.025379e+02
  1.057043e+01    9.011476e+02
  1.059321e+01    8.996534e+02
  1.061600e+01    8.982087e+02
  1.063878e+01    8.967290e+02
  1.066156e+01    8.953036e+02
  1.068435e+01    8.938477e+02
  1.070713e+01    8.923981e+02
  1.072991e+01    8.907179e+02
  1.075269e+01    8.890729e+02
  1.077548e+01    8.874207e+02
  1.079826e+01    8.857071e+02
  1.082104e+01    8.841143e+02
  1.084383e+01    8.824849e+02
  1.086661e+01    8.808287e+02
  1.088939e+01    8.793831e+02
  1.091217e+01    8.778842e+02
  1.093496e+01    8.763359e+02
  1.095774e+01    8.747095e+02
  1.098052e+01    8.731020e+02
  1.100330e+01    8.715758e+02
  1.102609e+01    8.698461e+02
  1.104887e+01    8.682279e+02
  1.107165e+01    8.667561e+02
  1.109444e+01    8.651182e+02
  1.111722e+01    8.635968e+02
  1.114000e+01    8.620537e+02
  1.116278e+01    8.602191e+02
  1.118557e+01    8.585063e+02
  1.120835e+01    8.570145e+02
  1.123113e+01    8.554590e+02
  1.125392e+01    8.538572e+02
  1.127670e+01    8.524100e+02
  1.129948e+01    8.509250e+02
  1.132226e+01    8.494221e+02
  1.134505e+01    8.480330e+02
  1.136783e+01    8.466182e+02
  1.139061e+01    8.453314e+02
  1.141340e+01    8.440570e+02
  1.143618e+01    8.428875e+02
  1.145896e+01    8.417881e+02
  1.148174e+01    8.407006e+02
  1.150453e+01    8.396470e+02
  1.152731e+01    8.385061e+02
  1.155009e+01    8.374641e+02
  1.157287e+01    8.364852e+02
  1.159566e+01    8.355823e+02
  1.161844e+01    8.346335e+02
  1.164122e+01    8.336888e+02
  1.166401e+01    8.329467e+02
  1.168679e+01    8.322072e+02
  1.170957e+01    8.315219e+02
  1.173235e+01    8.308329e+02
  1.175514e+01    8.301349e+02
  1.177792e+01    8.295544e+02
  1.180070e+01    8.289667e+02
  1.182349e+01    8.282992e+02
  1.184627e+01    8.278212e+02
  1.186905e+01    8.273102e+02
  1.189183e+01    8.267940e+02
  1.191462e+01    8.264867e+02
  1.193740e+01    8.261383e+02
  1.196018e+01    8.258494e+02
  1.198296e+01    8.254941e+02
  1.200575e+01    8.252110e+02
  1.202853e+01    8.248743e+02
  1.205131e+01    8.244655e+02
  1.207410e+01    8.242368e+02
  1.209688e+01    8.238405e+02
  1.211966e+01    8.233089e+02
  1.214244e+01    8.229518e+02
  1.216523e+01    8.224880e+02
  1.218801e+01    8.219756e+02
  1.221079e+01    8.215510e+02
  1.223358e+01    8.210031e+02
  1.225636e+01    8.203174e+02
  1.227914e+01    8.196760e+02
  1.230192e+01    8.189314e+02
  1.232471e+01    8.182003e+02
  1.234749e+01    8.174425e+02
  1.237027e+01    8.165209e+02
  1.239306e+01    8.156577e+02
  1.241584e+01    8.147058e+02
  1.243862e+01    8.136818e+02
  1.246140e+01    8.126323e+02
  1.248419e+01    8.114758e+02
  1.250697e+01    8.102416e+02
  1.252975e+01    8.089286e+02
  1.255253e+01    8.075120e+02
  1.257532e+01    8.061255e+02
  1.259810e+01    8.045568e+02
  1.262088e+01    8.029572e+02
  1.264367e+01    8.014502e+02
  1.266645e+01    7.999100e+02
  1.268923e+01    7.982134e+02
  1.271201e+01    7.964080e+02
  1.273480e+01    7.945724e+02
  1.275758e+01    7.927921e+02
  1.278036e+01    7.910463e+02
  1.280315e+01    7.892817e+02
  1.282593e+01    7.874657e+02
  1.284871e+01    7.857047e+02
  1.287149e+01    7.837706e+02
  1.289428e+01    7.818538e+02
  1.291706e+01    7.799897e+02
  1.293984e+01    7.781075e+02
  1.296263e+01    7.762541e+02
  1.298541e+01    7.743132e+02
  1.300819e+01    7.723564e+02
  1.303097e+01    7.703712e+02
  1.305376e+01    7.684340e+02
  1.307654e+01    7.664592e+02
  1.309932e+01    7.644844e+02
  1.312210e+01    7.626579e+02
  1.314489e+01    7.607568e+02
  1.316767e+01    7.588766e+02
  1.319045e+01    7.570200e+02
  1.321324e+01    7.551843e+02
  1.323602e+01    7.533026e+02
  1.325880e+01    7.515462e+02
  1.328158e+01    7.497644e+02
  1.330437e+01    7.479888e+02
  1.332715e+01    7.463196e+02
  1.334993e+01    7.445583e+02
  1.337272e+01    7.429025e+02
  1.339550e+01    7.412294e+02
  1.341828e+01    7.394936e+02
  1.344106e+01    7.378978e+02
  1.346385e+01    7.363466e+02
  1.348663e+01    7.349113e+02
  1.350941e+01    7.333651e+02
  1.353219e+01    7.317537e+02
  1.355498e+01    7.300739e+02
  1.357776e+01    7.282916e+02
  1.360054e+01    7.266888e+02
  1.362333e+01    7.251689e+02
  1.364611e+01    7.236091e+02
  1.366889e+01    7.221515e+02
  1.369167e+01    7.207021e+02
  1.371446e+01    7.192204e+02
  1.373724e+01    7.178755e+02
  1.376002e+01    7.165454e+02
  1.378281e+01    7.152846e+02
  1.380559e+01    7.140219e+02
  1.382837e+01    7.127466e+02
  1.385115e+01    7.115349e+02
  1.387394e+01    7.103703e+02
  1.389672e+01    7.091669e+02
  1.391950e+01    7.080458e+02
  1.394229e+01    7.069492e+02
  1.396507e+01    7.057867e+02
  1.398785e+01    7.046580e+02
  1.401063e+01    7.034009e+02
  1.403342e+01    7.023342e+02
  1.405620e+01    7.012600e+02
  1.407898e+01    7.001788e+02
  1.410176e+01    6.991761e+02
  1.412455e+01    6.981448e+02
  1.414733e+01    6.970917e+02
  1.417011e+01    6.961410e+02
  1.419290e+01    6.951004e+02
  1.421568e+01    6.941763e+02
  1.423846e+01    6.932480e+02
  1.426124e+01    6.922703e+02
  1.428403e+01    6.913197e+02
  1.430681e+01    6.903450e+02
  1.432959e+01    6.893251e+02
  1.435238e+01    6.883721e+02
  1.437516e+01    6.874159e+02
  1.439794e+01    6.865231e+02
  1.442072e+01    6.856622e+02
  1.444351e+01    6.847795e+02
  1.446629e+01    6.838553e+02
  1.448907e+01    6.829939e+02
  1.451186e+01    6.821229e+02
  1.453464e+01    6.813135e+02
  1.455742e+01    6.805055e+02
  1.458020e+01    6.797440e+02
  1.460299e+01    6.789929e+02
  1.462577e+01    6.782269e+02
  1.464855e+01    6.774063e+02
  1.467133e+01    6.764970e+02
  1.469412e+01    6.756772e+02
  1.471690e+01    6.748625e+02
  1.473968e+01    6.740355e+02
  1.476247e+01    6.732517e+02
  1.478525e+01    6.724514e+02
  1.480803e+01    6.716106e+02
  1.483081e+01    6.707549e+02
  1.485360e+01    6.699175e+02
  1.487638e+01    6.691556e+02
  1.489916e+01    6.684597e+02
  1.492195e+01    6.677016e+02
  1.494473e+01    6.669347e+02
  1.496751e+01    6.661425e+02
  1.499029e+01    6.653465e+02
  1.501308e+01    6.646171e+02
  1.503586e+01    6.641586e+02
  1.505864e+01    6.632559e+02
  1.508142e+01    6.624620e+02
  1.510421e+01    6.615920e+02
  1.512699e+01    6.606781e+02
  1.514977e+01    6.597801e+02
  1.517256e+01    6.590562e+02
  1.519534e+01    6.581768e+02
  1.521812e+01    6.573433e+02
  1.524090e+01    6.565099e+02
  1.526369e+01    6.556815e+02
  1.528647e+01    6.548582e+02
  1.530925e+01    6.540726e+02
  1.533204e+01    6.532191e+02
  1.535482e+01    6.523818e+02
  1.537760e+01    6.515848e+02
  1.540038e+01    6.507855e+02
  1.542317e+01    6.499071e+02
  1.544595e+01    6.490457e+02
  1.546873e+01    6.481718e+02
  1.549152e+01    6.472695e+02
  1.551430e+01    6.464021e+02
  1.553708e+01    6.455671e+02
  1.555986e+01    6.447299e+02
  1.558265e+01    6.438711e+02
  1.560543e+01    6.430090e+02
  1.562821e+01    6.421439e+02
  1.565099e+01    6.412709e+02
  1.567378e+01    6.404321e+02
  1.569656e+01    6.396244e+02
  1.571934e+01    6.387776e+02
  1.574213e+01    6.379647e+02
  1.576491e+01    6.371562e+02
  1.578769e+01    6.363680e+02
  1.581047e+01    6.355559e+02
  1.583326e+01    6.346747e+02
  1.585604e+01    6.338120e+02
  1.587882e+01    6.329174e+02
  1.590161e+01    6.320706e+02
  1.592439e+01    6.312454e+02
  1.594717e+01    6.304615e+02
  1.596995e+01    6.296919e+02
  1.599274e+01    6.289449e+02
  1.601552e+01    6.281866e+02
  1.603830e+01    6.274102e+02
  1.606109e+01    6.265881e+02
  1.608387e+01    6.259429e+02
  1.610665e+01    6.252091e+02
  1.612943e+01    6.244699e+02
  1.615222e+01    6.237449e+02
  1.617500e+01    6.228752e+02
  1.619778e+01    6.221438e+02
  1.622056e+01    6.214052e+02
  1.624335e+01    6.206869e+02
  1.626613e+01    6.199879e+02
  1.628891e+01    6.192114e+02
  1.631170e+01    6.184576e+02
  1.633448e+01    6.177766e+02
  1.635726e+01    6.170955e+02
  1.638004e+01    6.163134e+02
  1.640283e+01    6.155737e+02
  1.642561e+01    6.148776e+02
  1.644839e+01    6.141777e+02
  1.647118e+01    6.134621e+02
  1.649396e+01    6.126537e+02
  1.651674e+01    6.119002e+02
  1.653952e+01    6.111566e+02
  1.656231e+01    6.103850e+02
  1.658509e+01    6.095861e+02
  1.660787e+01    6.088828e+02
  1.663065e+01    6.081068e+02
  1.665344e+01    6.073624e+02
  1.667622e+01    6.065469e+02
  1.669900e+01    6.057764e+02
  1.672179e+01    6.049991e+02
  1.674457e+01    6.041601e+02
  1.676735e+01    6.033705e+02
  1.679013e+01    6.024675e+02
  1.681292e+01    6.016020e+02
  1.683570e+01    6.007048e+02
  1.685848e+01    5.998147e+02
  1.688127e+01    5.988915e+02
  1.690405e+01    5.979247e+02
  1.692683e+01    5.970904e+02
  1.694961e+01    5.961155e+02
  1.697240e+01    5.951661e+02
  1.699518e+01    5.941939e+02
  1.701796e+01    5.932578e+02
  1.704075e+01    5.922591e+02
  1.706353e+01    5.912551e+02
  1.708631e+01    5.902194e+02
  1.710909e+01    5.891822e+02
  1.713188e+01    5.880769e+02
  1.715466e+01    5.870684e+02
  1.717744e+01    5.859975e+02
  1.720022e+01    5.849910e+02
  1.722301e+01    5.840250e+02
  1.724579e+01    5.829899e+02
  1.726857e+01    5.818992e+02
  1.729136e+01    5.808494e+02
  1.731414e+01    5.798339e+02
  1.733692e+01    5.787939e+02
  1.735970e+01    5.776976e+02
  1.738249e+01    5.765599e+02
  1.740527e+01    5.755179e+02
  1.742805e+01    5.744514e+02
  1.745084e+01    5.734092e+02
  1.747362e+01    5.723737e+02
  1.749640e+01    5.713172e+02
  1.751918e+01    5.701903e+02
  1.754197e+01    5.691118e+02
  1.756475e+01    5.680992e+02
  1.758753e+01    5.671264e+02
  1.761032e+01    5.660912e+02
  1.763310e+01    5.650793e+02
  1.765588e+01    5.640826e+02
  1.767866e+01    5.631482e+02
  1.770145e+01    5.621384e+02
  1.772423e+01    5.611417e+02
  1.774701e+01    5.602300e+02
  1.776979e+01    5.593103e+02
  1.779258e+01    5.583769e+02
  1.781536e+01    5.573845e+02
  1.783814e+01    5.563797e+02
  1.786093e+01    5.554692e+02
  1.788371e+01    5.545488e+02
  1.790649e+01    5.536431e+02
  1.792927e+01    5.527114e+02
  1.795206e+01    5.518572e+02
  1.797484e+01    5.510034e+02
  1.799762e+01    5.501038e+02
  1.802041e+01    5.492606e+02
  1.804319e+01    5.484138e+02
  1.806597e+01    5.475574e+02
  1.808875e+01    5.467754e+02
  1.811154e+01    5.459600e+02
  1.813432e+01    5.451382e+02
  1.815710e+01    5.443312e+02
  1.817989e+01    5.434892e+02
  1.820267e+01    5.426532e+02
  1.822545e+01    5.418828e+02
  1.824823e+01    5.409753e+02
  1.827102e+01    5.401586e+02
  1.829380e+01    5.393683e+02
  1.831658e+01    5.386633e+02
  1.833936e+01    5.378679e+02
  1.836215e+01    5.370870e+02
  1.838493e+01    5.362999e+02
  1.840771e+01    5.356085e+02
  1.843050e+01    5.349428e+02
  1.845328e+01    5.341943e+02
  1.847606e+01    5.334703e+02
  1.849884e+01    5.327370e+02
  1.852163e+01    5.319302e+02
  1.854441e+01    5.311462e+02
  1.856719e+01    5.303931e+02
  1.858998e+01    5.297045e+02
  1.861276e+01    5.290706e+02
  1.863554e+01    5.284350e+02
  1.865832e+01    5.277064e+02
  1.868111e+01    5.269582e+02
  1.870389e+01    5.262726e+02
  1.872667e+01    5.256524e+02
  1.874945e+01    5.249628e+02
  1.877224e+01    5.243127e+02
  1.879502e+01    5.236334e+02
  1.881780e+01    5.229715e+02
  1.884059e+01    5.223145e+02
  1.886337e+01    5.216714e+02
  1.888615e+01    5.210118e+02
  1.890893e+01    5.203296e+02
  1.893172e+01    5.196687e+02
  1.895450e+01    5.189835e+02
  1.897728e+01    5.182593e+02
  1.900007e+01    5.175677e+02
  1.902285e+01    5.169184e+02
  1.904563e+01    5.162677e+02
  1.906841e+01    5.156095e+02
  1.909120e+01    5.149944e+02
  1.911398e+01    5.143088e+02
  1.913676e+01    5.135999e+02
  1.915955e+01    5.129614e+02
  1.918233e+01    5.123426e+02
  1.920511e+01    5.116584e+02
  1.922789e+01    5.109378e+02
  1.925068e+01    5.102735e+02
  1.927346e+01    5.095844e+02
  1.929624e+01    5.088916e+02
  1.931902e+01    5.081810e+02
  1.934181e+01    5.075676e+02
  1.936459e+01    5.069078e+02
  1.938737e+01    5.061847e+02
  1.941016e+01    5.055352e+02
  1.943294e+01    5.048300e+02
  1.945572e+01    5.041778e+02
  1.947850e+01    5.034489e+02
  1.950129e+01    5.026954e+02
  1.952407e+01    5.020258e+02
  1.954685e+01    5.013698e+02
  1.956964e+01    5.007386e+02
  1.959242e+01    5.001038e+02
  1.961520e+01    4.994344e+02
  1.963798e+01    4.987203e+02
  1.966077e+01    4.980536e+02
  1.968355e+01    4.973642e+02
  1.970633e+01    4.966538e+02
  1.972912e+01    4.959329e+02
  1.975190e+01    4.951833e+02
  1.977468e+01    4.944742e+02
  1.979746e+01    4.937709e+02
  1.982025e+01    4.930915e+02
  1.984303e+01    4.923459e+02
  1.986581e+01    4.916212e+02
  1.988859e+01    4.908753e+02
  1.991138e+01    4.901286e+02
  1.993416e+01    4.894377e+02
  1.995694e+01    4.886572e+02
  1.997973e+01    4.879367e+02
  2.000251e+01    4.872216e+02
  2.002529e+01    4.864579e+02
  2.004807e+01    4.857386e+02
  2.007086e+01    4.849715e+02
  2.009364e+01    4.841826e+02
  2.011642e+01    4.834011e+02
  2.013921e+01    4.826521e+02
  2.016199e+01    4.818565e+02
  2.018477e+01    4.810703e+02
  2.020755e+01    4.802846e+02
  2.023034e+01    4.794820e+02
  2.025312e+01    4.787122e+02
  2.027590e+01    4.779164e+02
  2.029868e+01    4.770530e+02
  2.032147e+01    4.762508e+02
  2.034425e+01    4.754731e+02
  2.036703e+01    4.746576e+02
  2.038982e+01    4.739041e+02
  2.041260e+01    4.730760e+02
  2.043538e+01    4.723305e+02
  2.045816e+01    4.716100e+02
  2.048095e+01    4.708519e+02
  2.050373e+01    4.700766e+02
  2.052651e+01    4.693299e+02
  2.054930e+01    4.685768e+02
  2.057208e+01    4.678507e+02
  2.059486e+01    4.671720e+02
  2.061764e+01    4.664497e+02
  2.064043e+01    4.656336e+02
  2.066321e+01    4.648951e+02
  2.068599e+01    4.641638e+02
  2.070878e+01    4.634707e+02
  2.073156e+01    4.627594e+02
  2.075434e+01    4.619688e+02
  2.077712e+01    4.612074e+02
  2.079991e+01    4.604419e+02
  2.082269e+01    4.596519e+02
  2.084547e+01    4.589258e+02
  2.086825e+01    4.581778e+02
  2.089104e+01    4.574420e+02
  2.091382e+01    4.566616e+02
  2.093660e+01    4.559337e+02
  2.095939e+01    4.551777e+02
  2.098217e+01    4.544250e+02
  2.100495e+01    4.536923e+02
  2.102773e+01    4.529688e+02
  2.105052e+01    4.521631e+02
  2.107330e+01    4.513935e+02
  2.109608e+01    4.505934e+02
  2.111887e+01    4.498287e+02
  2.114165e+01    4.491559e+02
  2.116443e+01    4.484000e+02
  2.118721e+01    4.475696e+02
  2.121000e+01    4.468308e+02
  2.123278e+01    4.461122e+02
  2.125556e+01    4.453706e+02
  2.127835e+01    4.446219e+02
  2.130113e+01    4.438764e+02
  2.132391e+01    4.431440e+02
  2.134669e+01    4.424074e+02
  2.136948e+01    4.416182e+02
  2.139226e+01    4.408357e+02
  2.141504e+01    4.402837e+02
  2.143782e+01    4.398385e+02
  2.146061e+01    4.388948e+02
  2.148339e+01    4.381032e+02
  2.150617e+01    4.373453e+02
  2.152896e+01    4.365355e+02
  2.155174e+01    4.357942e+02
  2.157452e+01    4.349942e+02
  2.159730e+01    4.342262e+02
  2.162009e+01    4.334509e+02
  2.164287e+01    4.326929e+02
  2.166565e+01    4.319785e+02
  2.168844e+01    4.312260e+02
  2.171122e+01    4.304852e+02
  2.173400e+01    4.297130e+02
  2.175678e+01    4.289500e+02
  2.177957e+01    4.282361e+02
  2.180235e+01    4.274767e+02
  2.182513e+01    4.267645e+02
  2.184791e+01    4.260259e+02
  2.187070e+01    4.253123e+02
  2.189348e+01    4.246082e+02
  2.191626e+01    4.238750e+02
  2.193905e+01    4.231547e+02
  2.196183e+01    4.224356e+02
  2.198461e+01    4.217089e+02
  2.200739e+01    4.210258e+02
  2.203018e+01    4.202847e+02
  2.205296e+01    4.195516e+02
  2.207574e+01    4.188434e+02
  2.209853e+01    4.181059e+02
  2.212131e+01    4.173759e+02
  2.214409e+01    4.166624e+02
  2.216687e+01    4.159430e+02
  2.218966e+01    4.152417e+02
  2.221244e+01    4.145615e+02
  2.223522e+01    4.138653e+02
  2.225801e+01    4.131408e+02
  2.228079e+01    4.124663e+02
  2.230357e+01    4.117347e+02
  2.232635e+01    4.110277e+02
  2.234914e+01    4.102912e+02
  2.237192e+01    4.096082e+02
  2.239470e+01    4.088990e+02
  2.241748e+01    4.082543e+02
  2.244027e+01    4.075401e+02
  2.246305e+01    4.068589e+02
  2.248583e+01    4.061575e+02
  2.250862e+01    4.054832e+02
  2.253140e+01    4.047666e+02
  2.255418e+01    4.040479e+02
  2.257696e+01    4.033642e+02
  2.259975e+01    4.027258e+02
  2.262253e+01    4.020815e+02
  2.264531e+01    4.014128e+02
  2.266810e+01    4.007349e+02
  2.269088e+01    4.000741e+02
  2.271366e+01    3.994432e+02
  2.273644e+01    3.987853e+02
  2.275923e+01    3.981538e+02
  2.278201e+01    3.974782e+02
  2.280479e+01    3.968076e+02
  2.282758e+01    3.961130e+02
  2.285036e+01    3.954757e+02
  2.287314e+01    3.948273e+02
  2.289592e+01    3.941843e+02
  2.291871e+01    3.935062e+02
  2.294149e+01    3.928454e+02
  2.296427e+01    3.921789e+02
  2.298705e+01    3.915437e+02
  2.300984e+01    3.908878e+02
  2.303262e+01    3.902296e+02
  2.305540e+01    3.895817e+02
  2.307819e+01    3.889231e+02
  2.310097e+01    3.882701e+02
  2.312375e+01    3.875466e+02
  2.314653e+01    3.868904e+02
  2.316932e+01    3.862538e+02
  2.319210e+01    3.855564e+02
  2.321488e+01    3.849427e+02
  2.323767e+01    3.842971e+02
  2.326045e+01    3.836393e+02
  2.328323e+01    3.829852e+02
  2.330601e+01    3.823239e+02
  2.332880e+01    3.816237e+02
  2.335158e+01    3.809897e+02
  2.337436e+01    3.803673e+02
  2.339714e+01    3.797034e+02
  2.341993e+01    3.790877e+02
  2.344271e+01    3.784422e+02
  2.346549e+01    3.777462e+02
  2.348828e+01    3.770758e+02
  2.351106e+01    3.764341e+02
  2.353384e+01    3.757882e+02
  2.355662e+01    3.752180e+02
  2.357941e+01    3.745380e+02
  2.360219e+01    3.738586e+02
  2.362497e+01    3.731830e+02
  2.364776e+01    3.725519e+02
  2.367054e+01    3.719290e+02
  2.369332e+01    3.715031e+02
  2.371610e+01    3.709479e+02
  2.373889e+01    3.701436e+02
  2.376167e+01    3.693857e+02
  2.378445e+01    3.686840e+02
  2.380724e+01    3.679862e+02
  2.383002e+01    3.673689e+02
  2.385280e+01    3.666614e+02
  2.387558e+01    3.659671e+02
  2.389837e+01    3.652786e+02
  2.392115e+01    3.645925e+02
  2.394393e+01    3.639163e+02
  2.396671e+01    3.632185e+02
  2.398950e+01    3.625373e+02
  2.401228e+01    3.619180e+02
  2.403506e+01    3.612742e+02
  2.405785e+01    3.606272e+02
  2.408063e+01    3.599815e+02
  2.410341e+01    3.592949e+02
  2.412619e+01    3.586007e+02
  2.414898e+01    3.580095e+02
  2.417176e+01    3.573351e+02
  2.419454e+01    3.566378e+02
  2.421733e+01    3.559713e+02
  2.424011e+01    3.552938e+02
  2.426289e+01    3.546778e+02
  2.428567e+01    3.539676e+02
  2.430846e+01    3.532549e+02
  2.433124e+01    3.526333e+02
  2.435402e+01    3.519464e+02
  2.437681e+01    3.512758e+02
  2.439959e+01    3.505846e+02
  2.442237e+01    3.499138e+02
  2.444515e+01    3.492547e+02
  2.446794e+01    3.485692e+02
  2.449072e+01    3.478948e+02
  2.451350e+01    3.472489e+02
  2.453628e+01    3.465417e+02
  2.455907e+01    3.458988e+02
  2.458185e+01    3.452718e+02
  2.460463e+01    3.445503e+02
  2.462742e+01    3.438285e+02
  2.465020e+01    3.431660e+02
  2.467298e+01    3.425457e+02
  2.469576e+01    3.418683e+02
  2.471855e+01    3.411973e+02
  2.474133e+01    3.405154e+02
  2.476411e+01    3.398874e+02
  2.478690e+01    3.392055e+02
  2.480968e+01    3.384611e+02
  2.483246e+01    3.378518e+02
  2.485524e+01    3.371841e+02
  2.487803e+01    3.364816e+02
  2.490081e+01    3.357866e+02
  2.492359e+01    3.351403e+02
  2.494637e+01    3.344588e+02
  2.496916e+01    3.337847e+02
  2.499194e+01    3.331198e+02
  2.501472e+01    3.324054e+02
  2.503751e+01    3.317628e+02
  2.506029e+01    3.310883e+02
  2.508307e+01    3.304277e+02
  2.510585e+01    3.297793e+02
  2.512864e+01    3.290936e+02
  2.515142e+01    3.284057e+02
  2.517420e+01    3.277533e+02
  2.519699e+01    3.270525e+02
  2.521977e+01    3.263808e+02
  2.524255e+01    3.257333e+02
  2.526533e+01    3.250659e+02
  2.528812e+01    3.243790e+02
  2.531090e+01    3.237202e+02
  2.533368e+01    3.230810e+02
  2.535647e+01    3.224854e+02
  2.537925e+01    3.218614e+02
  2.540203e+01    3.212206e+02
  2.542481e+01    3.205978e+02
  2.544760e+01    3.199521e+02
  2.547038e+01    3.193383e+02
  2.549316e+01    3.186776e+02
  2.551594e+01    3.180115e+02
  2.553873e+01    3.173747e+02
  2.556151e+01    3.167616e+02
  2.558429e+01    3.161266e+02
  2.560708e+01    3.154905e+02
  2.562986e+01    3.148445e+02
  2.565264e+01    3.142049e+02
  2.567542e+01    3.135464e+02
  2.569821e+01    3.129004e+02
  2.572099e+01    3.123033e+02
  2.574377e+01    3.116628e+02
  2.576656e+01    3.110835e+02
  2.578934e+01    3.104475e+02
  2.581212e+01    3.098078e+02
  2.583490e+01    3.091711e+02
  2.585769e+01    3.085247e+02
  2.588047e+01    3.079351e+02
  2.590325e+01    3.072863e+02
  2.592604e+01    3.066666e+02
  2.594882e+01    3.060222e+02
  2.597160e+01    3.053999e+02
  2.599438e+01    3.047841e+02
  2.601717e+01    3.041600e+02
  2.603995e+01    3.035833e+02
  2.606273e+01    3.029648e+02
  2.608551e+01    3.023420e+02
  2.610830e+01    3.016873e+02
  2.613108e+01    3.010982e+02
  2.615386e+01    3.004682e+02
  2.617665e+01    2.998437e+02
  2.619943e+01    2.992011e+02
  2.622221e+01    2.985780e+02
  2.624499e+01    2.979730e+02
  2.626778e+01    2.973998e+02
  2.629056e+01    2.967697e+02
  2.631334e+01    2.961660e+02
  2.633613e+01    2.955281e+02
  2.635891e+01    2.949603e+02
  2.638169e+01    2.943137e+02
  2.640447e+01    2.937032e+02
  2.642726e+01    2.930615e+02
  2.645004e+01    2.923891e+02
  2.647282e+01    2.917996e+02
  2.649560e+01    2.911970e+02
  2.651839e+01    2.905559e+02
  2.654117e+01    2.899612e+02
  2.656395e+01    2.893398e+02
  2.658674e+01    2.887411e+02
  2.660952e+01    2.881125e+02
  2.663230e+01    2.875143e+02
  2.665508e+01    2.869190e+02
  2.667787e+01    2.862923e+02
  2.670065e+01    2.856494e+02
  2.672343e+01    2.850585e+02
  2.674622e+01    2.844518e+02
  2.676900e+01    2.838532e+02
  2.679178e+01    2.832518e+02
  2.681456e+01    2.826269e+02
  2.683735e+01    2.820117e+02
  2.686013e+01    2.814095e+02
  2.688291e+01    2.807454e+02
  2.690570e+01    2.801462e+02
  2.692848e+01    2.795283e+02
  2.695126e+01    2.789411e+02
  2.697404e+01    2.783544e+02
  2.699683e+01    2.777310e+02
  2.701961e+01    2.770999e+02
  2.704239e+01    2.764781e+02
  2.706517e+01    2.758521e+02
  2.708796e+01    2.752308e+02
  2.711074e+01    2.745744e+02
  2.713352e+01    2.739556e+02
  2.715631e+01    2.733305e+02
  2.717909e+01    2.727433e+02
  2.720187e+01    2.724283e+02
  2.722465e+01    2.727046e+02
  2.724744e+01    2.725853e+02
  2.727022e+01    2.723589e+02
  2.729300e+01    2.720311e+02
  2.731579e+01    2.716710e+02
  2.733857e+01    2.712946e+02
  2.736135e+01    2.709129e+02
  2.738413e+01    2.704684e+02
  2.740692e+01    2.699956e+02
  2.742970e+01    2.691019e+02
  2.745248e+01    2.683281e+02
  2.747527e+01    2.676185e+02
  2.749805e+01    2.669644e+02
  2.752083e+01    2.662831e+02
  2.754361e+01    2.656288e+02
  2.756640e+01    2.649667e+02
  2.758918e+01    2.642292e+02
  2.761196e+01    2.628230e+02
  2.763474e+01    2.616448e+02
  2.765753e+01    2.605512e+02
  2.768031e+01    2.595417e+02
  2.770309e+01    2.585869e+02
  2.772588e+01    2.576320e+02
  2.774866e+01    2.567255e+02
  2.777144e+01    2.557909e+02
  2.779422e+01    2.554545e+02
  2.781701e+01    2.556226e+02
  2.783979e+01    2.553270e+02
  2.786257e+01    2.549592e+02
  2.788536e+01    2.545910e+02
  2.790814e+01    2.541446e+02
  2.793092e+01    2.536424e+02
  2.795370e+01    2.531730e+02
  2.797649e+01    2.526400e+02
  2.799927e+01    2.521208e+02
  2.802205e+01    2.515813e+02
  2.804483e+01    2.510782e+02
  2.806762e+01    2.505862e+02
  2.809040e+01    2.500518e+02
  2.811318e+01    2.495282e+02
  2.813597e+01    2.489670e+02
  2.815875e+01    2.484456e+02
  2.818153e+01    2.478672e+02
  2.820431e+01    2.473200e+02
  2.822710e+01    2.467567e+02
  2.824988e+01    2.462144e+02
  2.827266e+01    2.456606e+02
  2.829545e+01    2.451450e+02
  2.831823e+01    2.446010e+02
  2.834101e+01    2.440384e+02
  2.836379e+01    2.434373e+02
  2.838658e+01    2.428844e+02
  2.840936e+01    2.423112e+02
  2.843214e+01    2.417807e+02
  2.845493e+01    2.412081e+02
  2.847771e+01    2.406085e+02
  2.850049e+01    2.400904e+02
  2.852327e+01    2.394801e+02
  2.854606e+01    2.389472e+02
  2.856884e+01    2.384419e+02
  2.859162e+01    2.378522e+02
  2.861440e+01    2.372669e+02
  2.863719e+01    2.367363e+02
  2.865997e+01    2.362005e+02
  2.868275e+01    2.356007e+02
  2.870554e+01    2.350178e+02
  2.872832e+01    2.344752e+02
  2.875110e+01    2.339483e+02
  2.877388e+01    2.333735e+02
  2.879667e+01    2.327549e+02
  2.881945e+01    2.322042e+02
  2.884223e+01    2.316326e+02
  2.886502e+01    2.310373e+02
  2.888780e+01    2.305061e+02
  2.891058e+01    2.299358e+02
  2.893336e+01    2.294168e+02
  2.895615e+01    2.289140e+02
  2.897893e+01    2.283701e+02
  2.900171e+01    2.277651e+02
  2.902450e+01    2.271390e+02
  2.904728e+01    2.266418e+02
  2.907006e+01    2.260528e+02
  2.909284e+01    2.255233e+02
  2.911563e+01    2.249543e+02
  2.913841e+01    2.244122e+02
  2.916119e+01    2.238573e+02
  2.918397e+01    2.232585e+02
  2.920676e+01    2.226405e+02
  2.922954e+01    2.221078e+02
  2.925232e+01    2.215656e+02
  2.927511e+01    2.210355e+02
  2.929789e+01    2.204531e+02
  2.932067e+01    2.198818e+02
  2.934345e+01    2.193477e+02
  2.936624e+01    2.188132e+02
  2.938902e+01    2.182807e+02
  2.941180e+01    2.177178e+02
  2.943459e+01    2.171629e+02
  2.945737e+01    2.166312e+02
  2.948015e+01    2.160655e+02
  2.950293e+01    2.155221e+02
  2.952572e+01    2.149451e+02
  2.954850e+01    2.144264e+02
  2.957128e+01    2.138642e+02
  2.959407e+01    2.133569e+02
  2.961685e+01    2.128165e+02
  2.963963e+01    2.122911e+02
  2.966241e+01    2.117663e+02
  2.968520e+01    2.112124e+02
  2.970798e+01    2.106729e+02
  2.973076e+01    2.101157e+02
  2.975354e+01    2.096170e+02
  2.977633e+01    2.090376e+02
  2.979911e+01    2.085392e+02
  2.982189e+01    2.079679e+02
  2.984468e+01    2.074338e+02
  2.986746e+01    2.068658e+02
  2.989024e+01    2.063517e+02
  2.991302e+01    2.058434e+02
  2.993581e+01    2.052871e+02
  2.995859e+01    2.047741e+02
  2.998137e+01    2.042341e+02
  3.000416e+01    2.036828e+02
  3.002694e+01    2.031893e+02
  3.004972e+01    2.026828e+02
  3.007250e+01    2.021073e+02
  3.009529e+01    2.015936e+02
  3.011807e+01    2.010930e+02
  3.014085e+01    2.005090e+02
  3.016363e+01    1.999933e+02
  3.018642e+01    1.994790e+02
  3.020920e+01    1.989543e+02
  3.023198e+01    1.984199e+02
  3.025477e+01    1.979054e+02
  3.027755e+01    1.973804e+02
  3.030033e+01    1.968579e+02
  3.032311e+01    1.963036e+02
  3.034590e+01    1.958403e+02
  3.036868e+01    1.953022e+02
  3.039146e+01    1.948777e+02
  3.041425e+01    1.943613e+02
  3.043703e+01    1.938547e+02
  3.045981e+01    1.933448e+02
  3.048259e+01    1.928045e+02
  3.050538e+01    1.923810e+02
  3.052816e+01    1.918581e+02
  3.055094e+01    1.913042e+02
  3.057373e+01    1.907553e+02
  3.059651e+01    1.902581e+02
  3.061929e+01    1.897003e+02
  3.064207e+01    1.892248e+02
  3.066486e+01    1.886626e+02
  3.068764e+01    1.881895e+02
  3.071042e+01    1.876805e+02
  3.073320e+01    1.871544e+02
  3.075599e+01    1.866069e+02
  3.077877e+01    1.861671e+02
  3.080155e+01    1.857356e+02
  3.082434e+01    1.851243e+02
  3.084712e+01    1.846527e+02
  3.086990e+01    1.842129e+02
  3.089268e+01    1.836649e+02
  3.091547e+01    1.831131e+02
  3.093825e+01    1.826912e+02
  3.096103e+01    1.821881e+02
  3.098382e+01    1.817168e+02
  3.100660e+01    1.812478e+02
  3.102938e+01    1.806779e+02
  3.105216e+01    1.801443e+02
  3.107495e+01    1.797200e+02
  3.109773e+01    1.792744e+02
  3.112051e+01    1.787644e+02
  3.114330e+01    1.781853e+02
  3.116608e+01    1.777271e+02
  3.118886e+01    1.773154e+02
  3.121164e+01    1.766701e+02
  3.123443e+01    1.762961e+02
  3.125721e+01    1.757809e+02
  3.127999e+01    1.753093e+02
  3.130277e+01    1.748624e+02
  3.132556e+01    1.742428e+02
  3.134834e+01    1.737952e+02
  3.137112e+01    1.733750e+02
  3.139391e+01    1.729382e+02
  3.141669e+01    1.725291e+02
  3.143947e+01    1.720856e+02
  3.146225e+01    1.716671e+02
  3.148504e+01    1.711154e+02
  3.150782e+01    1.703576e+02
  3.153060e+01    1.700359e+02
  3.155339e+01    1.696436e+02
  3.157617e+01    1.692811e+02
  3.159895e+01    1.688233e+02
  3.162173e+01    1.682296e+02
  3.164452e+01    1.676889e+02
  3.166730e+01    1.672923e+02
  3.169008e+01    1.668182e+02
  3.171286e+01    1.664095e+02
  3.173565e+01    1.659466e+02
  3.175843e+01    1.653215e+02
  3.178121e+01    1.649619e+02
  3.180400e+01    1.644300e+02
  3.182678e+01    1.638965e+02
  3.184956e+01    1.633652e+02
  3.187234e+01    1.629307e+02
  3.189513e+01    1.626275e+02
  3.191791e+01    1.620593e+02
  3.194069e+01    1.616294e+02
  3.196348e+01    1.612276e+02
  3.198626e+01    1.606163e+02
  3.200904e+01    1.603127e+02
  3.203182e+01    1.597552e+02
  3.205461e+01    1.592799e+02
  3.207739e+01    1.587783e+02
  3.210017e+01    1.583346e+02
  3.212296e+01    1.578299e+02
  3.214574e+01    1.572980e+02
  3.216852e+01    1.567254e+02
  3.219130e+01    1.563408e+02
  3.221409e+01    1.558451e+02
  3.223687e+01    1.553565e+02
  3.225965e+01    1.548185e+02
  3.228243e+01    1.542557e+02
  3.230522e+01    1.537477e+02
  3.232800e+01    1.532521e+02
  3.235078e+01    1.527226e+02
  3.237357e+01    1.521873e+02
  3.239635e+01    1.517506e+02
  3.241913e+01    1.513298e+02
  3.244191e+01    1.507545e+02
  3.246470e+01    1.501894e+02
  3.248748e+01    1.497106e+02
  3.251026e+01    1.491943e+02
  3.253305e+01    1.485094e+02
  3.255583e+01    1.481389e+02
  3.257861e+01    1.476591e+02
  3.260139e+01    1.470063e+02
  3.262418e+01    1.465091e+02
  3.264696e+01    1.459287e+02
  3.266974e+01    1.453724e+02
  3.269253e+01    1.450005e+02
  3.271531e+01    1.444745e+02
  3.273809e+01    1.439206e+02
  3.276087e+01    1.433861e+02
  3.278366e+01    1.429166e+02
  3.280644e+01    1.423703e+02
  3.282922e+01    1.418685e+02
  3.285200e+01    1.413961e+02
  3.287479e+01    1.406976e+02
  3.289757e+01    1.401225e+02
  3.292035e+01    1.397025e+02
  3.294314e+01    1.391702e+02
  3.296592e+01    1.386482e+02
  3.298870e+01    1.382599e+02
  3.301148e+01    1.376674e+02
  3.303427e+01    1.371569e+02
  3.305705e+01    1.365745e+02
  3.307983e+01    1.362072e+02
  3.310262e+01    1.356046e+02
  3.312540e+01    1.350015e+02
  3.314818e+01    1.345092e+02
  3.317096e+01    1.342643e+02
  3.319375e+01    1.338289e+02
  3.321653e+01    1.330905e+02
  3.323931e+01    1.325520e+02
  3.326209e+01    1.321814e+02
  3.328488e+01    1.314773e+02
  3.330766e+01    1.309124e+02
  3.333044e+01    1.304309e+02
  3.335323e+01    1.301246e+02
  3.337601e+01    1.298873e+02
  3.339879e+01    1.297988e+02
  3.342157e+01    1.295120e+02
  3.344436e+01    1.284850e+02
  3.346714e+01    1.280638e+02
  3.348992e+01    1.272706e+02
  3.351271e+01    1.257450e+02
  3.353549e+01    0.000000e+00
  3.355827e+01    0.000000e+00
  3.358105e+01    0.000000e+00
  3.360384e+01    0.000000e+00
  3.362662e+01    0.000000e+00
  3.364940e+01    0.000000e+00
  3.367219e+01    0.000000e+00
  3.369497e+01    0.000000e+00
  3.371775e+01    0.000000e+00
