# == pyFAI calibration ==
# Distance Sample to Detector: 0.21311058206280517 m
# PONI: 2.037e-01, 1.993e-01 m
# Rotations: -0.005459 0.000134 0.000000 rad
# 
# == Fit2d calibration ==
# Distance Sample-beamCenter: 213.114 mm
# Center: x=1002.134, y=1018.730 pix
# Tilt: 0.313 deg  TiltPlanRot: 1.411 deg
# 
# Detector Perkin detector	 PixelSize= 2.000e-04, 2.000e-04 m
#    Detector has a mask: False 
#    Detector has a dark current: False 
#    detector has a flat field: False 
# 
# Wavelength: 1.675e-11 m
# Mask applied: provided
# Dark current applied: False
# Flat field applied: False
# Polarization factor: None
# Normalization factor: 1.0
# --> data/chi_bkgsub_false/C_Tatania5-26.6-average.chi
#        q_A^-1             I 
  2.199784e-02    1.250034e+02
  4.478064e-02    1.252585e+02
  6.756343e-02    1.261853e+02
  9.034623e-02    1.269991e+02
  1.131290e-01    1.295206e+02
  1.359118e-01    1.312979e+02
  1.586946e-01    1.342031e+02
  1.814774e-01    1.389261e+02
  2.042602e-01    1.448236e+02
  2.270430e-01    1.559684e+02
  2.498258e-01    1.767518e+02
  2.726086e-01    2.136656e+02
  2.953914e-01    4.093125e+02
  3.181742e-01    6.473533e+02
  3.409570e-01    1.034907e+03
  3.637398e-01    1.454697e+03
  3.865226e-01    1.184506e+03
  4.093054e-01    8.824252e+02
  4.320881e-01    7.115208e+02
  4.548709e-01    6.340507e+02
  4.776537e-01    6.819819e+02
  5.004365e-01    7.287630e+02
  5.232193e-01    7.654053e+02
  5.460021e-01    8.137548e+02
  5.687849e-01    8.760792e+02
  5.915677e-01    9.471954e+02
  6.143505e-01    1.041047e+03
  6.371333e-01    1.160677e+03
  6.599161e-01    1.277156e+03
  6.826989e-01    1.394781e+03
  7.054817e-01    1.500587e+03
  7.282645e-01    1.585378e+03
  7.510473e-01    1.651386e+03
  7.738301e-01    1.698372e+03
  7.966129e-01    1.741174e+03
  8.193956e-01    1.785570e+03
  8.421784e-01    1.829384e+03
  8.649612e-01    1.876493e+03
  8.877440e-01    1.928242e+03
  9.105268e-01    1.980370e+03
  9.333096e-01    2.037097e+03
  9.560924e-01    2.098526e+03
  9.788752e-01    2.162207e+03
  1.001658e+00    2.232108e+03
  1.024441e+00    2.305961e+03
  1.047224e+00    2.383576e+03
  1.070006e+00    2.468802e+03
  1.092789e+00    2.558494e+03
  1.115572e+00    2.652834e+03
  1.138355e+00    2.756719e+03
  1.161138e+00    2.864982e+03
  1.183920e+00    2.979364e+03
  1.206703e+00    3.103091e+03
  1.229486e+00    3.228542e+03
  1.252269e+00    3.363497e+03
  1.275052e+00    3.507429e+03
  1.297834e+00    3.645495e+03
  1.320617e+00    3.794530e+03
  1.343400e+00    3.949388e+03
  1.366183e+00    4.102059e+03
  1.388966e+00    4.260230e+03
  1.411748e+00    4.416927e+03
  1.434531e+00    4.572293e+03
  1.457314e+00    4.726065e+03
  1.480097e+00    4.864312e+03
  1.502879e+00    4.997874e+03
  1.525662e+00    5.124285e+03
  1.548445e+00    5.235703e+03
  1.571228e+00    5.334572e+03
  1.594011e+00    5.420090e+03
  1.616793e+00    5.494081e+03
  1.639576e+00    5.547180e+03
  1.662359e+00    5.584355e+03
  1.685142e+00    5.617380e+03
  1.707925e+00    5.636451e+03
  1.730707e+00    5.647741e+03
  1.753490e+00    5.653867e+03
  1.776273e+00    5.642680e+03
  1.799056e+00    5.605655e+03
  1.821839e+00    5.539050e+03
  1.844621e+00    5.463168e+03
  1.867404e+00    5.391899e+03
  1.890187e+00    5.314195e+03
  1.912970e+00    5.244069e+03
  1.935753e+00    5.182042e+03
  1.958535e+00    5.122208e+03
  1.981318e+00    5.062812e+03
  2.004101e+00    5.004576e+03
  2.026884e+00    4.949931e+03
  2.049667e+00    4.891349e+03
  2.072449e+00    4.825376e+03
  2.095232e+00    4.762958e+03
  2.118015e+00    4.697864e+03
  2.140798e+00    4.635006e+03
  2.163581e+00    4.557855e+03
  2.186363e+00    4.472487e+03
  2.209146e+00    4.388955e+03
  2.231929e+00    4.296833e+03
  2.254712e+00    4.202025e+03
  2.277494e+00    4.108872e+03
  2.300277e+00    4.010490e+03
  2.323060e+00    3.908717e+03
  2.345843e+00    3.809125e+03
  2.368626e+00    3.708393e+03
  2.391408e+00    3.610149e+03
  2.414191e+00    3.510444e+03
  2.436974e+00    3.413956e+03
  2.459757e+00    3.324570e+03
  2.482540e+00    3.235481e+03
  2.505322e+00    3.146132e+03
  2.528105e+00    3.061206e+03
  2.550888e+00    2.983799e+03
  2.573671e+00    2.913464e+03
  2.596454e+00    2.851804e+03
  2.619236e+00    2.800886e+03
  2.642019e+00    2.754464e+03
  2.664802e+00    2.708790e+03
  2.687585e+00    2.670189e+03
  2.710368e+00    2.639046e+03
  2.733150e+00    2.619906e+03
  2.755933e+00    2.607031e+03
  2.778716e+00    2.601958e+03
  2.801499e+00    2.606143e+03
  2.824282e+00    2.611654e+03
  2.847064e+00    2.618102e+03
  2.869847e+00    2.626276e+03
  2.892630e+00    2.634298e+03
  2.915413e+00    2.638416e+03
  2.938196e+00    2.640897e+03
  2.960978e+00    2.640372e+03
  2.983761e+00    2.637510e+03
  3.006544e+00    2.633070e+03
  3.029327e+00    2.627246e+03
  3.052110e+00    2.619361e+03
  3.074892e+00    2.607718e+03
  3.097675e+00    2.594385e+03
  3.120458e+00    2.580789e+03
  3.143241e+00    2.567469e+03
  3.166023e+00    2.554445e+03
  3.188806e+00    2.541677e+03
  3.211589e+00    2.529532e+03
  3.234372e+00    2.519570e+03
  3.257155e+00    2.511823e+03
  3.279937e+00    2.506414e+03
  3.302720e+00    2.498782e+03
  3.325503e+00    2.487459e+03
  3.348286e+00    2.472597e+03
  3.371069e+00    2.455472e+03
  3.393851e+00    2.440690e+03
  3.416634e+00    2.428962e+03
  3.439417e+00    2.420392e+03
  3.462200e+00    2.417790e+03
  3.484983e+00    2.419318e+03
  3.507765e+00    2.418577e+03
  3.530548e+00    2.418658e+03
  3.553331e+00    2.418928e+03
  3.576114e+00    2.420370e+03
  3.598897e+00    2.424149e+03
  3.621679e+00    2.432411e+03
  3.644462e+00    2.446584e+03
  3.667245e+00    2.460690e+03
  3.690028e+00    2.474699e+03
  3.712811e+00    2.487169e+03
  3.735593e+00    2.498116e+03
  3.758376e+00    2.506916e+03
  3.781159e+00    2.513332e+03
  3.803942e+00    2.519345e+03
  3.826725e+00    2.524792e+03
  3.849507e+00    2.530085e+03
  3.872290e+00    2.537640e+03
  3.895073e+00    2.551375e+03
  3.917856e+00    2.561606e+03
  3.940638e+00    2.567082e+03
  3.963421e+00    2.577058e+03
  3.986204e+00    2.587855e+03
  4.008987e+00    2.597551e+03
  4.031770e+00    2.606824e+03
  4.054552e+00    2.618051e+03
  4.077335e+00    2.632318e+03
  4.100118e+00    2.638796e+03
  4.122901e+00    2.646828e+03
  4.145684e+00    2.655172e+03
  4.168466e+00    2.662390e+03
  4.191249e+00    2.668531e+03
  4.214032e+00    2.674489e+03
  4.236815e+00    2.681198e+03
  4.259598e+00    2.681259e+03
  4.282380e+00    2.671312e+03
  4.305163e+00    2.663917e+03
  4.327946e+00    2.655699e+03
  4.350729e+00    2.647076e+03
  4.373512e+00    2.638033e+03
  4.396294e+00    2.628996e+03
  4.419077e+00    2.618602e+03
  4.441860e+00    2.606196e+03
  4.464643e+00    2.595573e+03
  4.487426e+00    2.591417e+03
  4.510208e+00    2.575901e+03
  4.532991e+00    2.557403e+03
  4.555774e+00    2.543549e+03
  4.578557e+00    2.529733e+03
  4.601340e+00    2.514758e+03
  4.624122e+00    2.498376e+03
  4.646905e+00    2.484467e+03
  4.669688e+00    2.472720e+03
  4.692471e+00    2.447418e+03
  4.715253e+00    2.427088e+03
  4.738036e+00    2.408938e+03
  4.760819e+00    2.391098e+03
  4.783602e+00    2.373376e+03
  4.806385e+00    2.356907e+03
  4.829167e+00    2.346369e+03
  4.851950e+00    2.330803e+03
  4.874733e+00    2.313758e+03
  4.897516e+00    2.303061e+03
  4.920299e+00    2.293764e+03
  4.943081e+00    2.285588e+03
  4.965864e+00    2.276166e+03
  4.988647e+00    2.265561e+03
  5.011430e+00    2.254319e+03
  5.034213e+00    2.235682e+03
  5.056995e+00    2.221490e+03
  5.079778e+00    2.213874e+03
  5.102561e+00    2.196437e+03
  5.125344e+00    2.180852e+03
  5.148127e+00    2.167880e+03
  5.170909e+00    2.154989e+03
  5.193692e+00    2.140891e+03
  5.216475e+00    2.126988e+03
  5.239258e+00    2.115913e+03
  5.262041e+00    2.101925e+03
  5.284823e+00    2.081812e+03
  5.307606e+00    2.065661e+03
  5.330389e+00    2.049898e+03
  5.353172e+00    2.033109e+03
  5.375955e+00    2.015120e+03
  5.398737e+00    1.995919e+03
  5.421520e+00    1.978107e+03
  5.444303e+00    1.952408e+03
  5.467086e+00    1.927512e+03
  5.489869e+00    1.904735e+03
  5.512651e+00    1.882528e+03
  5.535434e+00    1.861378e+03
  5.558217e+00    1.841262e+03
  5.581000e+00    1.823798e+03
  5.603782e+00    1.804890e+03
  5.626565e+00    1.783264e+03
  5.649348e+00    1.766289e+03
  5.672131e+00    1.750078e+03
  5.694914e+00    1.729874e+03
  5.717696e+00    1.713606e+03
  5.740479e+00    1.699401e+03
  5.763262e+00    1.685902e+03
  5.786045e+00    1.672990e+03
  5.808828e+00    1.661979e+03
  5.831610e+00    1.653716e+03
  5.854393e+00    1.641233e+03
  5.877176e+00    1.629144e+03
  5.899959e+00    1.619950e+03
  5.922742e+00    1.611734e+03
  5.945524e+00    1.603808e+03
  5.968307e+00    1.596412e+03
  5.991090e+00    1.590942e+03
  6.013873e+00    1.584537e+03
  6.036656e+00    1.573694e+03
  6.059438e+00    1.566893e+03
  6.082221e+00    1.561135e+03
  6.105004e+00    1.550849e+03
  6.127787e+00    1.543149e+03
  6.150570e+00    1.537072e+03
  6.173352e+00    1.532001e+03
  6.196135e+00    1.524257e+03
  6.218918e+00    1.516766e+03
  6.241701e+00    1.511471e+03
  6.264484e+00    1.503493e+03
  6.287266e+00    1.495105e+03
  6.310049e+00    1.487901e+03
  6.332832e+00    1.480709e+03
  6.355615e+00    1.473386e+03
  6.378397e+00    1.466170e+03
  6.401180e+00    1.460231e+03
  6.423963e+00    1.454141e+03
  6.446746e+00    1.445407e+03
  6.469529e+00    1.438063e+03
  6.492311e+00    1.431108e+03
  6.515094e+00    1.424321e+03
  6.537877e+00    1.417688e+03
  6.560660e+00    1.411247e+03
  6.583443e+00    1.405554e+03
  6.606225e+00    1.397335e+03
  6.629008e+00    1.389114e+03
  6.651791e+00    1.382295e+03
  6.674574e+00    1.374018e+03
  6.697357e+00    1.365516e+03
  6.720139e+00    1.358296e+03
  6.742922e+00    1.352136e+03
  6.765705e+00    1.345727e+03
  6.788488e+00    1.339267e+03
  6.811271e+00    1.333663e+03
  6.834053e+00    1.327843e+03
  6.856836e+00    1.320811e+03
  6.879619e+00    1.314227e+03
  6.902402e+00    1.307829e+03
  6.925185e+00    1.301440e+03
  6.947967e+00    1.295509e+03
  6.970750e+00    1.290600e+03
  6.993533e+00    1.286399e+03
  7.016316e+00    1.281488e+03
  7.039099e+00    1.276463e+03
  7.061881e+00    1.271439e+03
  7.084664e+00    1.266552e+03
  7.107447e+00    1.261989e+03
  7.130230e+00    1.258043e+03
  7.153013e+00    1.254285e+03
  7.175795e+00    1.250299e+03
  7.198578e+00    1.246319e+03
  7.221361e+00    1.243044e+03
  7.244144e+00    1.240560e+03
  7.266926e+00    1.238303e+03
  7.289709e+00    1.236546e+03
  7.312492e+00    1.235408e+03
  7.335275e+00    1.234762e+03
  7.358058e+00    1.234642e+03
  7.380840e+00    1.234770e+03
  7.403623e+00    1.234871e+03
  7.426406e+00    1.235046e+03
  7.449189e+00    1.235490e+03
  7.471972e+00    1.236121e+03
  7.494754e+00    1.236923e+03
  7.517537e+00    1.237955e+03
  7.540320e+00    1.239564e+03
  7.563103e+00    1.241467e+03
  7.585886e+00    1.243434e+03
  7.608668e+00    1.245080e+03
  7.631451e+00    1.246781e+03
  7.654234e+00    1.248513e+03
  7.677017e+00    1.249820e+03
  7.699800e+00    1.251222e+03
  7.722582e+00    1.252808e+03
  7.745365e+00    1.254382e+03
  7.768148e+00    1.255734e+03
  7.790931e+00    1.257268e+03
  7.813714e+00    1.258797e+03
  7.836496e+00    1.260252e+03
  7.859279e+00    1.261558e+03
  7.882062e+00    1.262136e+03
  7.904845e+00    1.262025e+03
  7.927628e+00    1.260904e+03
  7.950410e+00    1.259808e+03
  7.973193e+00    1.258624e+03
  7.995976e+00    1.257312e+03
  8.018759e+00    1.255855e+03
  8.041541e+00    1.254291e+03
  8.064324e+00    1.252571e+03
  8.087107e+00    1.250077e+03
  8.109890e+00    1.247553e+03
  8.132673e+00    1.245385e+03
  8.155455e+00    1.242054e+03
  8.178238e+00    1.238642e+03
  8.201021e+00    1.235486e+03
  8.223804e+00    1.232439e+03
  8.246587e+00    1.229356e+03
  8.269369e+00    1.226408e+03
  8.292152e+00    1.223061e+03
  8.314935e+00    1.219501e+03
  8.337718e+00    1.215865e+03
  8.360501e+00    1.212551e+03
  8.383283e+00    1.209564e+03
  8.406066e+00    1.206488e+03
  8.428849e+00    1.203334e+03
  8.451632e+00    1.199853e+03
  8.474415e+00    1.196075e+03
  8.497197e+00    1.191837e+03
  8.519980e+00    1.187504e+03
  8.542763e+00    1.183407e+03
  8.565546e+00    1.179910e+03
  8.588329e+00    1.176251e+03
  8.611111e+00    1.172759e+03
  8.633894e+00    1.168870e+03
  8.656677e+00    1.165183e+03
  8.679460e+00    1.161735e+03
  8.702243e+00    1.158309e+03
  8.725025e+00    1.155000e+03
  8.747808e+00    1.151933e+03
  8.770591e+00    1.148955e+03
  8.793374e+00    1.145823e+03
  8.816156e+00    1.142290e+03
  8.838939e+00    1.138809e+03
  8.861722e+00    1.135290e+03
  8.884505e+00    1.132082e+03
  8.907288e+00    1.128902e+03
  8.930070e+00    1.125333e+03
  8.952853e+00    1.121654e+03
  8.975636e+00    1.117798e+03
  8.998419e+00    1.113775e+03
  9.021202e+00    1.109580e+03
  9.043984e+00    1.105777e+03
  9.066767e+00    1.101789e+03
  9.089550e+00    1.097692e+03
  9.112333e+00    1.093572e+03
  9.135116e+00    1.089278e+03
  9.157898e+00    1.084769e+03
  9.180681e+00    1.080152e+03
  9.203464e+00    1.075524e+03
  9.226247e+00    1.070976e+03
  9.249030e+00    1.066299e+03
  9.271812e+00    1.062079e+03
  9.294595e+00    1.057804e+03
  9.317378e+00    1.053411e+03
  9.340161e+00    1.049111e+03
  9.362944e+00    1.044589e+03
  9.385726e+00    1.039801e+03
  9.408509e+00    1.035080e+03
  9.431292e+00    1.030497e+03
  9.454075e+00    1.025845e+03
  9.476858e+00    1.021581e+03
  9.499640e+00    1.017398e+03
  9.522423e+00    1.013050e+03
  9.545206e+00    1.008446e+03
  9.567989e+00    1.003852e+03
  9.590772e+00    9.993613e+02
  9.613554e+00    9.951510e+02
  9.636337e+00    9.907033e+02
  9.659120e+00    9.866442e+02
  9.681903e+00    9.825951e+02
  9.704685e+00    9.786519e+02
  9.727468e+00    9.749057e+02
  9.750251e+00    9.713756e+02
  9.773034e+00    9.680717e+02
  9.795817e+00    9.644972e+02
  9.818599e+00    9.607881e+02
  9.841382e+00    9.571416e+02
  9.864165e+00    9.538691e+02
  9.886948e+00    9.510173e+02
  9.909731e+00    9.481880e+02
  9.932513e+00    9.453995e+02
  9.955296e+00    9.427963e+02
  9.978079e+00    9.403378e+02
  1.000086e+01    9.379533e+02
  1.002364e+01    9.355296e+02
  1.004643e+01    9.331722e+02
  1.006921e+01    9.308726e+02
  1.009199e+01    9.286010e+02
  1.011478e+01    9.265060e+02
  1.013756e+01    9.244194e+02
  1.016034e+01    9.224437e+02
  1.018312e+01    9.204469e+02
  1.020591e+01    9.184001e+02
  1.022869e+01    9.166323e+02
  1.025147e+01    9.148386e+02
  1.027426e+01    9.129621e+02
  1.029704e+01    9.112724e+02
  1.031982e+01    9.095830e+02
  1.034260e+01    9.079402e+02
  1.036539e+01    9.063958e+02
  1.038817e+01    9.049369e+02
  1.041095e+01    9.034545e+02
  1.043373e+01    9.021365e+02
  1.045652e+01    9.008022e+02
  1.047930e+01    8.993264e+02
  1.050208e+01    8.979610e+02
  1.052487e+01    8.965884e+02
  1.054765e+01    8.952722e+02
  1.057043e+01    8.939655e+02
  1.059321e+01    8.927475e+02
  1.061600e+01    8.913870e+02
  1.063878e+01    8.898629e+02
  1.066156e+01    8.884374e+02
  1.068435e+01    8.869108e+02
  1.070713e+01    8.854208e+02
  1.072991e+01    8.837970e+02
  1.075269e+01    8.822151e+02
  1.077548e+01    8.804799e+02
  1.079826e+01    8.786624e+02
  1.082104e+01    8.769109e+02
  1.084383e+01    8.751466e+02
  1.086661e+01    8.733561e+02
  1.088939e+01    8.716548e+02
  1.091217e+01    8.700719e+02
  1.093496e+01    8.685518e+02
  1.095774e+01    8.668801e+02
  1.098052e+01    8.653140e+02
  1.100330e+01    8.638084e+02
  1.102609e+01    8.622605e+02
  1.104887e+01    8.608387e+02
  1.107165e+01    8.594297e+02
  1.109444e+01    8.578770e+02
  1.111722e+01    8.561815e+02
  1.114000e+01    8.545861e+02
  1.116278e+01    8.527197e+02
  1.118557e+01    8.509456e+02
  1.120835e+01    8.492584e+02
  1.123113e+01    8.475958e+02
  1.125392e+01    8.460658e+02
  1.127670e+01    8.445095e+02
  1.129948e+01    8.430106e+02
  1.132226e+01    8.415965e+02
  1.134505e+01    8.401844e+02
  1.136783e+01    8.388123e+02
  1.139061e+01    8.374998e+02
  1.141340e+01    8.361871e+02
  1.143618e+01    8.350550e+02
  1.145896e+01    8.339229e+02
  1.148174e+01    8.329330e+02
  1.150453e+01    8.319645e+02
  1.152731e+01    8.309064e+02
  1.155009e+01    8.301235e+02
  1.157287e+01    8.293530e+02
  1.159566e+01    8.285227e+02
  1.161844e+01    8.276420e+02
  1.164122e+01    8.266949e+02
  1.166401e+01    8.260067e+02
  1.168679e+01    8.253556e+02
  1.170957e+01    8.246364e+02
  1.173235e+01    8.238425e+02
  1.175514e+01    8.231859e+02
  1.177792e+01    8.224902e+02
  1.180070e+01    8.218897e+02
  1.182349e+01    8.211876e+02
  1.184627e+01    8.205873e+02
  1.186905e+01    8.201801e+02
  1.189183e+01    8.197034e+02
  1.191462e+01    8.192925e+02
  1.193740e+01    8.189794e+02
  1.196018e+01    8.188400e+02
  1.198296e+01    8.187382e+02
  1.200575e+01    8.183580e+02
  1.202853e+01    8.179971e+02
  1.205131e+01    8.176171e+02
  1.207410e+01    8.172706e+02
  1.209688e+01    8.169094e+02
  1.211966e+01    8.164704e+02
  1.214244e+01    8.162664e+02
  1.216523e+01    8.157991e+02
  1.218801e+01    8.151580e+02
  1.221079e+01    8.147691e+02
  1.223358e+01    8.143004e+02
  1.225636e+01    8.133769e+02
  1.227914e+01    8.126225e+02
  1.230192e+01    8.119012e+02
  1.232471e+01    8.111115e+02
  1.234749e+01    8.102780e+02
  1.237027e+01    8.094724e+02
  1.239306e+01    8.085059e+02
  1.241584e+01    8.074579e+02
  1.243862e+01    8.064669e+02
  1.246140e+01    8.054427e+02
  1.248419e+01    8.043194e+02
  1.250697e+01    8.031729e+02
  1.252975e+01    8.018608e+02
  1.255253e+01    8.003972e+02
  1.257532e+01    7.990196e+02
  1.259810e+01    7.974309e+02
  1.262088e+01    7.958207e+02
  1.264367e+01    7.941805e+02
  1.266645e+01    7.925937e+02
  1.268923e+01    7.908330e+02
  1.271201e+01    7.890805e+02
  1.273480e+01    7.872639e+02
  1.275758e+01    7.854835e+02
  1.278036e+01    7.837265e+02
  1.280315e+01    7.819585e+02
  1.282593e+01    7.801330e+02
  1.284871e+01    7.784083e+02
  1.287149e+01    7.766224e+02
  1.289428e+01    7.748022e+02
  1.291706e+01    7.729119e+02
  1.293984e+01    7.710067e+02
  1.296263e+01    7.691669e+02
  1.298541e+01    7.672530e+02
  1.300819e+01    7.653422e+02
  1.303097e+01    7.634232e+02
  1.305376e+01    7.614431e+02
  1.307654e+01    7.594060e+02
  1.309932e+01    7.573795e+02
  1.312210e+01    7.555892e+02
  1.314489e+01    7.537629e+02
  1.316767e+01    7.519286e+02
  1.319045e+01    7.501241e+02
  1.321324e+01    7.483015e+02
  1.323602e+01    7.463913e+02
  1.325880e+01    7.446613e+02
  1.328158e+01    7.429670e+02
  1.330437e+01    7.413481e+02
  1.332715e+01    7.397237e+02
  1.334993e+01    7.380597e+02
  1.337272e+01    7.364317e+02
  1.339550e+01    7.348444e+02
  1.341828e+01    7.331993e+02
  1.344106e+01    7.315170e+02
  1.346385e+01    7.299601e+02
  1.348663e+01    7.285009e+02
  1.350941e+01    7.269609e+02
  1.353219e+01    7.253369e+02
  1.355498e+01    7.236530e+02
  1.357776e+01    7.218779e+02
  1.360054e+01    7.202252e+02
  1.362333e+01    7.187296e+02
  1.364611e+01    7.172210e+02
  1.366889e+01    7.158438e+02
  1.369167e+01    7.144007e+02
  1.371446e+01    7.129803e+02
  1.373724e+01    7.115189e+02
  1.376002e+01    7.101828e+02
  1.378281e+01    7.088993e+02
  1.380559e+01    7.076490e+02
  1.382837e+01    7.064249e+02
  1.385115e+01    7.053026e+02
  1.387394e+01    7.041943e+02
  1.389672e+01    7.029731e+02
  1.391950e+01    7.018604e+02
  1.394229e+01    7.008521e+02
  1.396507e+01    6.996987e+02
  1.398785e+01    6.985510e+02
  1.401063e+01    6.973753e+02
  1.403342e+01    6.963093e+02
  1.405620e+01    6.951880e+02
  1.407898e+01    6.940632e+02
  1.410176e+01    6.931016e+02
  1.412455e+01    6.920994e+02
  1.414733e+01    6.911089e+02
  1.417011e+01    6.902731e+02
  1.419290e+01    6.893167e+02
  1.421568e+01    6.882839e+02
  1.423846e+01    6.873348e+02
  1.426124e+01    6.863911e+02
  1.428403e+01    6.855354e+02
  1.430681e+01    6.845511e+02
  1.432959e+01    6.835374e+02
  1.435238e+01    6.825761e+02
  1.437516e+01    6.816255e+02
  1.439794e+01    6.806815e+02
  1.442072e+01    6.797291e+02
  1.444351e+01    6.789106e+02
  1.446629e+01    6.780345e+02
  1.448907e+01    6.771773e+02
  1.451186e+01    6.763614e+02
  1.453464e+01    6.755673e+02
  1.455742e+01    6.747675e+02
  1.458020e+01    6.740441e+02
  1.460299e+01    6.732718e+02
  1.462577e+01    6.724995e+02
  1.464855e+01    6.716775e+02
  1.467133e+01    6.708001e+02
  1.469412e+01    6.699468e+02
  1.471690e+01    6.691691e+02
  1.473968e+01    6.682607e+02
  1.476247e+01    6.674979e+02
  1.478525e+01    6.666421e+02
  1.480803e+01    6.659095e+02
  1.483081e+01    6.651402e+02
  1.485360e+01    6.642688e+02
  1.487638e+01    6.635685e+02
  1.489916e+01    6.628262e+02
  1.492195e+01    6.620603e+02
  1.494473e+01    6.612429e+02
  1.496751e+01    6.604988e+02
  1.499029e+01    6.596981e+02
  1.501308e+01    6.590031e+02
  1.503586e+01    6.584171e+02
  1.505864e+01    6.574464e+02
  1.508142e+01    6.566439e+02
  1.510421e+01    6.558240e+02
  1.512699e+01    6.549416e+02
  1.514977e+01    6.540820e+02
  1.517256e+01    6.532490e+02
  1.519534e+01    6.524282e+02
  1.521812e+01    6.516086e+02
  1.524090e+01    6.508299e+02
  1.526369e+01    6.500063e+02
  1.528647e+01    6.492054e+02
  1.530925e+01    6.484263e+02
  1.533204e+01    6.475720e+02
  1.535482e+01    6.467628e+02
  1.537760e+01    6.458962e+02
  1.540038e+01    6.450129e+02
  1.542317e+01    6.442837e+02
  1.544595e+01    6.434813e+02
  1.546873e+01    6.425700e+02
  1.549152e+01    6.416406e+02
  1.551430e+01    6.407939e+02
  1.553708e+01    6.400004e+02
  1.555986e+01    6.391119e+02
  1.558265e+01    6.382964e+02
  1.560543e+01    6.375040e+02
  1.562821e+01    6.367053e+02
  1.565099e+01    6.358514e+02
  1.567378e+01    6.350720e+02
  1.569656e+01    6.341646e+02
  1.571934e+01    6.332321e+02
  1.574213e+01    6.323871e+02
  1.576491e+01    6.315649e+02
  1.578769e+01    6.307860e+02
  1.581047e+01    6.300100e+02
  1.583326e+01    6.290603e+02
  1.585604e+01    6.281073e+02
  1.587882e+01    6.272675e+02
  1.590161e+01    6.265060e+02
  1.592439e+01    6.257142e+02
  1.594717e+01    6.248875e+02
  1.596995e+01    6.241349e+02
  1.599274e+01    6.234336e+02
  1.601552e+01    6.227462e+02
  1.603830e+01    6.219783e+02
  1.606109e+01    6.212124e+02
  1.608387e+01    6.204440e+02
  1.610665e+01    6.196952e+02
  1.612943e+01    6.190043e+02
  1.615222e+01    6.182802e+02
  1.617500e+01    6.175309e+02
  1.619778e+01    6.168113e+02
  1.622056e+01    6.160553e+02
  1.624335e+01    6.153536e+02
  1.626613e+01    6.146277e+02
  1.628891e+01    6.138818e+02
  1.631170e+01    6.131108e+02
  1.633448e+01    6.124912e+02
  1.635726e+01    6.118121e+02
  1.638004e+01    6.110366e+02
  1.640283e+01    6.102617e+02
  1.642561e+01    6.095802e+02
  1.644839e+01    6.088742e+02
  1.647118e+01    6.081453e+02
  1.649396e+01    6.074102e+02
  1.651674e+01    6.066635e+02
  1.653952e+01    6.059800e+02
  1.656231e+01    6.052686e+02
  1.658509e+01    6.043856e+02
  1.660787e+01    6.036174e+02
  1.663065e+01    6.028654e+02
  1.665344e+01    6.021199e+02
  1.667622e+01    6.013106e+02
  1.669900e+01    6.005706e+02
  1.672179e+01    5.998383e+02
  1.674457e+01    5.989350e+02
  1.676735e+01    5.980390e+02
  1.679013e+01    5.971387e+02
  1.681292e+01    5.962511e+02
  1.683570e+01    5.953881e+02
  1.685848e+01    5.945204e+02
  1.688127e+01    5.936591e+02
  1.690405e+01    5.926847e+02
  1.692683e+01    5.917771e+02
  1.694961e+01    5.907991e+02
  1.697240e+01    5.898655e+02
  1.699518e+01    5.889653e+02
  1.701796e+01    5.879724e+02
  1.704075e+01    5.870252e+02
  1.706353e+01    5.860030e+02
  1.708631e+01    5.849717e+02
  1.710909e+01    5.838528e+02
  1.713188e+01    5.827773e+02
  1.715466e+01    5.817047e+02
  1.717744e+01    5.806916e+02
  1.720022e+01    5.796002e+02
  1.722301e+01    5.786312e+02
  1.724579e+01    5.776007e+02
  1.726857e+01    5.766266e+02
  1.729136e+01    5.756344e+02
  1.731414e+01    5.746152e+02
  1.733692e+01    5.735021e+02
  1.735970e+01    5.723843e+02
  1.738249e+01    5.713415e+02
  1.740527e+01    5.703062e+02
  1.742805e+01    5.692283e+02
  1.745084e+01    5.681298e+02
  1.747362e+01    5.671363e+02
  1.749640e+01    5.661943e+02
  1.751918e+01    5.650250e+02
  1.754197e+01    5.639505e+02
  1.756475e+01    5.629657e+02
  1.758753e+01    5.619808e+02
  1.761032e+01    5.609875e+02
  1.763310e+01    5.599823e+02
  1.765588e+01    5.589638e+02
  1.767866e+01    5.580253e+02
  1.770145e+01    5.569757e+02
  1.772423e+01    5.560030e+02
  1.774701e+01    5.551074e+02
  1.776979e+01    5.541241e+02
  1.779258e+01    5.532285e+02
  1.781536e+01    5.522930e+02
  1.783814e+01    5.513047e+02
  1.786093e+01    5.503571e+02
  1.788371e+01    5.495582e+02
  1.790649e+01    5.486418e+02
  1.792927e+01    5.477216e+02
  1.795206e+01    5.469114e+02
  1.797484e+01    5.460206e+02
  1.799762e+01    5.450684e+02
  1.802041e+01    5.442913e+02
  1.804319e+01    5.434453e+02
  1.806597e+01    5.425744e+02
  1.808875e+01    5.417670e+02
  1.811154e+01    5.409643e+02
  1.813432e+01    5.402151e+02
  1.815710e+01    5.394434e+02
  1.817989e+01    5.385460e+02
  1.820267e+01    5.377018e+02
  1.822545e+01    5.369692e+02
  1.824823e+01    5.361795e+02
  1.827102e+01    5.353035e+02
  1.829380e+01    5.345391e+02
  1.831658e+01    5.337817e+02
  1.833936e+01    5.330594e+02
  1.836215e+01    5.322454e+02
  1.838493e+01    5.314944e+02
  1.840771e+01    5.307296e+02
  1.843050e+01    5.300242e+02
  1.845328e+01    5.293655e+02
  1.847606e+01    5.286743e+02
  1.849884e+01    5.279203e+02
  1.852163e+01    5.272487e+02
  1.854441e+01    5.264846e+02
  1.856719e+01    5.256973e+02
  1.858998e+01    5.250049e+02
  1.861276e+01    5.243469e+02
  1.863554e+01    5.236733e+02
  1.865832e+01    5.229881e+02
  1.868111e+01    5.222065e+02
  1.870389e+01    5.215598e+02
  1.872667e+01    5.209535e+02
  1.874945e+01    5.202570e+02
  1.877224e+01    5.195227e+02
  1.879502e+01    5.188802e+02
  1.881780e+01    5.182756e+02
  1.884059e+01    5.176191e+02
  1.886337e+01    5.169744e+02
  1.888615e+01    5.163008e+02
  1.890893e+01    5.156675e+02
  1.893172e+01    5.150481e+02
  1.895450e+01    5.143094e+02
  1.897728e+01    5.136228e+02
  1.900007e+01    5.129595e+02
  1.902285e+01    5.123146e+02
  1.904563e+01    5.116320e+02
  1.906841e+01    5.109250e+02
  1.909120e+01    5.102697e+02
  1.911398e+01    5.096036e+02
  1.913676e+01    5.089261e+02
  1.915955e+01    5.082797e+02
  1.918233e+01    5.076610e+02
  1.920511e+01    5.070135e+02
  1.922789e+01    5.063068e+02
  1.925068e+01    5.056082e+02
  1.927346e+01    5.049697e+02
  1.929624e+01    5.043330e+02
  1.931902e+01    5.036487e+02
  1.934181e+01    5.029594e+02
  1.936459e+01    5.022914e+02
  1.938737e+01    5.015693e+02
  1.941016e+01    5.009478e+02
  1.943294e+01    5.003120e+02
  1.945572e+01    4.996486e+02
  1.947850e+01    4.989333e+02
  1.950129e+01    4.981931e+02
  1.952407e+01    4.975499e+02
  1.954685e+01    4.968404e+02
  1.956964e+01    4.962372e+02
  1.959242e+01    4.955448e+02
  1.961520e+01    4.948598e+02
  1.963798e+01    4.941667e+02
  1.966077e+01    4.935010e+02
  1.968355e+01    4.928301e+02
  1.970633e+01    4.920740e+02
  1.972912e+01    4.913936e+02
  1.975190e+01    4.906425e+02
  1.977468e+01    4.899278e+02
  1.979746e+01    4.891480e+02
  1.982025e+01    4.884786e+02
  1.984303e+01    4.878191e+02
  1.986581e+01    4.871510e+02
  1.988859e+01    4.864117e+02
  1.991138e+01    4.856686e+02
  1.993416e+01    4.849266e+02
  1.995694e+01    4.841676e+02
  1.997973e+01    4.834496e+02
  2.000251e+01    4.827711e+02
  2.002529e+01    4.819316e+02
  2.004807e+01    4.811772e+02
  2.007086e+01    4.804303e+02
  2.009364e+01    4.796539e+02
  2.011642e+01    4.788487e+02
  2.013921e+01    4.781377e+02
  2.016199e+01    4.773326e+02
  2.018477e+01    4.765656e+02
  2.020755e+01    4.758132e+02
  2.023034e+01    4.750854e+02
  2.025312e+01    4.742715e+02
  2.027590e+01    4.734835e+02
  2.029868e+01    4.726804e+02
  2.032147e+01    4.718468e+02
  2.034425e+01    4.710810e+02
  2.036703e+01    4.702949e+02
  2.038982e+01    4.695240e+02
  2.041260e+01    4.687558e+02
  2.043538e+01    4.680232e+02
  2.045816e+01    4.672452e+02
  2.048095e+01    4.665117e+02
  2.050373e+01    4.657868e+02
  2.052651e+01    4.650809e+02
  2.054930e+01    4.643266e+02
  2.057208e+01    4.635087e+02
  2.059486e+01    4.627907e+02
  2.061764e+01    4.620571e+02
  2.064043e+01    4.613573e+02
  2.066321e+01    4.606823e+02
  2.068599e+01    4.598785e+02
  2.070878e+01    4.591852e+02
  2.073156e+01    4.584703e+02
  2.075434e+01    4.576651e+02
  2.077712e+01    4.569483e+02
  2.079991e+01    4.561674e+02
  2.082269e+01    4.554301e+02
  2.084547e+01    4.546631e+02
  2.086825e+01    4.538744e+02
  2.089104e+01    4.531846e+02
  2.091382e+01    4.524901e+02
  2.093660e+01    4.516515e+02
  2.095939e+01    4.508731e+02
  2.098217e+01    4.501179e+02
  2.100495e+01    4.494423e+02
  2.102773e+01    4.487660e+02
  2.105052e+01    4.480221e+02
  2.107330e+01    4.472434e+02
  2.109608e+01    4.464876e+02
  2.111887e+01    4.456834e+02
  2.114165e+01    4.449512e+02
  2.116443e+01    4.441982e+02
  2.118721e+01    4.434557e+02
  2.121000e+01    4.427354e+02
  2.123278e+01    4.419771e+02
  2.125556e+01    4.412232e+02
  2.127835e+01    4.404323e+02
  2.130113e+01    4.396492e+02
  2.132391e+01    4.389775e+02
  2.134669e+01    4.382288e+02
  2.136948e+01    4.374765e+02
  2.139226e+01    4.367943e+02
  2.141504e+01    4.361678e+02
  2.143782e+01    4.356753e+02
  2.146061e+01    4.347303e+02
  2.148339e+01    4.339524e+02
  2.150617e+01    4.332497e+02
  2.152896e+01    4.324668e+02
  2.155174e+01    4.316984e+02
  2.157452e+01    4.309265e+02
  2.159730e+01    4.301878e+02
  2.162009e+01    4.294315e+02
  2.164287e+01    4.286875e+02
  2.166565e+01    4.279395e+02
  2.168844e+01    4.272125e+02
  2.171122e+01    4.264677e+02
  2.173400e+01    4.257484e+02
  2.175678e+01    4.250021e+02
  2.177957e+01    4.243505e+02
  2.180235e+01    4.235427e+02
  2.182513e+01    4.227792e+02
  2.184791e+01    4.220927e+02
  2.187070e+01    4.213613e+02
  2.189348e+01    4.206209e+02
  2.191626e+01    4.199284e+02
  2.193905e+01    4.192086e+02
  2.196183e+01    4.185005e+02
  2.198461e+01    4.177871e+02
  2.200739e+01    4.170660e+02
  2.203018e+01    4.163394e+02
  2.205296e+01    4.155939e+02
  2.207574e+01    4.149434e+02
  2.209853e+01    4.142611e+02
  2.212131e+01    4.135364e+02
  2.214409e+01    4.128068e+02
  2.216687e+01    4.120561e+02
  2.218966e+01    4.114060e+02
  2.221244e+01    4.107268e+02
  2.223522e+01    4.100232e+02
  2.225801e+01    4.093191e+02
  2.228079e+01    4.086417e+02
  2.230357e+01    4.079321e+02
  2.232635e+01    4.072208e+02
  2.234914e+01    4.065742e+02
  2.237192e+01    4.058557e+02
  2.239470e+01    4.051204e+02
  2.241748e+01    4.044298e+02
  2.244027e+01    4.037118e+02
  2.246305e+01    4.030128e+02
  2.248583e+01    4.023704e+02
  2.250862e+01    4.016883e+02
  2.253140e+01    4.010410e+02
  2.255418e+01    4.003840e+02
  2.257696e+01    3.997235e+02
  2.259975e+01    3.990362e+02
  2.262253e+01    3.983934e+02
  2.264531e+01    3.977238e+02
  2.266810e+01    3.970664e+02
  2.269088e+01    3.964636e+02
  2.271366e+01    3.958278e+02
  2.273644e+01    3.951924e+02
  2.275923e+01    3.944954e+02
  2.278201e+01    3.938407e+02
  2.280479e+01    3.932108e+02
  2.282758e+01    3.925543e+02
  2.285036e+01    3.918339e+02
  2.287314e+01    3.912281e+02
  2.289592e+01    3.906454e+02
  2.291871e+01    3.899395e+02
  2.294149e+01    3.892708e+02
  2.296427e+01    3.886306e+02
  2.298705e+01    3.879603e+02
  2.300984e+01    3.872912e+02
  2.303262e+01    3.866703e+02
  2.305540e+01    3.860690e+02
  2.307819e+01    3.853437e+02
  2.310097e+01    3.846916e+02
  2.312375e+01    3.840002e+02
  2.314653e+01    3.833835e+02
  2.316932e+01    3.827525e+02
  2.319210e+01    3.820438e+02
  2.321488e+01    3.814220e+02
  2.323767e+01    3.807602e+02
  2.326045e+01    3.801530e+02
  2.328323e+01    3.794556e+02
  2.330601e+01    3.787963e+02
  2.332880e+01    3.781216e+02
  2.335158e+01    3.775108e+02
  2.337436e+01    3.768987e+02
  2.339714e+01    3.762934e+02
  2.341993e+01    3.756215e+02
  2.344271e+01    3.750260e+02
  2.346549e+01    3.743695e+02
  2.348828e+01    3.736947e+02
  2.351106e+01    3.730188e+02
  2.353384e+01    3.723925e+02
  2.355662e+01    3.717868e+02
  2.357941e+01    3.711346e+02
  2.360219e+01    3.704510e+02
  2.362497e+01    3.698266e+02
  2.364776e+01    3.691833e+02
  2.367054e+01    3.685171e+02
  2.369332e+01    3.681733e+02
  2.371610e+01    3.676235e+02
  2.373889e+01    3.667932e+02
  2.376167e+01    3.660406e+02
  2.378445e+01    3.653812e+02
  2.380724e+01    3.647116e+02
  2.383002e+01    3.640397e+02
  2.385280e+01    3.633594e+02
  2.387558e+01    3.626747e+02
  2.389837e+01    3.620024e+02
  2.392115e+01    3.613124e+02
  2.394393e+01    3.606405e+02
  2.396671e+01    3.599283e+02
  2.398950e+01    3.592744e+02
  2.401228e+01    3.586502e+02
  2.403506e+01    3.579914e+02
  2.405785e+01    3.573503e+02
  2.408063e+01    3.566389e+02
  2.410341e+01    3.559573e+02
  2.412619e+01    3.552733e+02
  2.414898e+01    3.547195e+02
  2.417176e+01    3.540400e+02
  2.419454e+01    3.533807e+02
  2.421733e+01    3.526981e+02
  2.424011e+01    3.520421e+02
  2.426289e+01    3.514108e+02
  2.428567e+01    3.507346e+02
  2.430846e+01    3.500922e+02
  2.433124e+01    3.494251e+02
  2.435402e+01    3.487712e+02
  2.437681e+01    3.481029e+02
  2.439959e+01    3.474430e+02
  2.442237e+01    3.467409e+02
  2.444515e+01    3.460860e+02
  2.446794e+01    3.454574e+02
  2.449072e+01    3.447869e+02
  2.451350e+01    3.441341e+02
  2.453628e+01    3.434407e+02
  2.455907e+01    3.428090e+02
  2.458185e+01    3.420823e+02
  2.460463e+01    3.414273e+02
  2.462742e+01    3.407729e+02
  2.465020e+01    3.401224e+02
  2.467298e+01    3.394643e+02
  2.469576e+01    3.388202e+02
  2.471855e+01    3.381148e+02
  2.474133e+01    3.374636e+02
  2.476411e+01    3.368450e+02
  2.478690e+01    3.361695e+02
  2.480968e+01    3.354595e+02
  2.483246e+01    3.348645e+02
  2.485524e+01    3.341637e+02
  2.487803e+01    3.334697e+02
  2.490081e+01    3.327773e+02
  2.492359e+01    3.321241e+02
  2.494637e+01    3.314357e+02
  2.496916e+01    3.307207e+02
  2.499194e+01    3.301035e+02
  2.501472e+01    3.294360e+02
  2.503751e+01    3.287861e+02
  2.506029e+01    3.280973e+02
  2.508307e+01    3.274743e+02
  2.510585e+01    3.268087e+02
  2.512864e+01    3.261452e+02
  2.515142e+01    3.254828e+02
  2.517420e+01    3.247457e+02
  2.519699e+01    3.240797e+02
  2.521977e+01    3.234711e+02
  2.524255e+01    3.228280e+02
  2.526533e+01    3.221807e+02
  2.528812e+01    3.215461e+02
  2.531090e+01    3.208772e+02
  2.533368e+01    3.202308e+02
  2.535647e+01    3.196505e+02
  2.537925e+01    3.190034e+02
  2.540203e+01    3.183797e+02
  2.542481e+01    3.177375e+02
  2.544760e+01    3.171239e+02
  2.547038e+01    3.164764e+02
  2.549316e+01    3.158929e+02
  2.551594e+01    3.152655e+02
  2.553873e+01    3.145975e+02
  2.556151e+01    3.139832e+02
  2.558429e+01    3.133320e+02
  2.560708e+01    3.127456e+02
  2.562986e+01    3.121033e+02
  2.565264e+01    3.114603e+02
  2.567542e+01    3.107889e+02
  2.569821e+01    3.101706e+02
  2.572099e+01    3.095689e+02
  2.574377e+01    3.089427e+02
  2.576656e+01    3.083385e+02
  2.578934e+01    3.077410e+02
  2.581212e+01    3.071212e+02
  2.583490e+01    3.065197e+02
  2.585769e+01    3.058498e+02
  2.588047e+01    3.051787e+02
  2.590325e+01    3.045896e+02
  2.592604e+01    3.039861e+02
  2.594882e+01    3.033792e+02
  2.597160e+01    3.027787e+02
  2.599438e+01    3.021523e+02
  2.601717e+01    3.015364e+02
  2.603995e+01    3.009380e+02
  2.606273e+01    3.003057e+02
  2.608551e+01    2.997128e+02
  2.610830e+01    2.990983e+02
  2.613108e+01    2.984904e+02
  2.615386e+01    2.978464e+02
  2.617665e+01    2.972386e+02
  2.619943e+01    2.966297e+02
  2.622221e+01    2.960023e+02
  2.624499e+01    2.953477e+02
  2.626778e+01    2.947659e+02
  2.629056e+01    2.942059e+02
  2.631334e+01    2.936222e+02
  2.633613e+01    2.929860e+02
  2.635891e+01    2.924168e+02
  2.638169e+01    2.917841e+02
  2.640447e+01    2.911689e+02
  2.642726e+01    2.905743e+02
  2.645004e+01    2.899345e+02
  2.647282e+01    2.892964e+02
  2.649560e+01    2.886675e+02
  2.651839e+01    2.880377e+02
  2.654117e+01    2.874789e+02
  2.656395e+01    2.868878e+02
  2.658674e+01    2.862949e+02
  2.660952e+01    2.856547e+02
  2.663230e+01    2.850289e+02
  2.665508e+01    2.844363e+02
  2.667787e+01    2.838218e+02
  2.670065e+01    2.832457e+02
  2.672343e+01    2.826389e+02
  2.674622e+01    2.820499e+02
  2.676900e+01    2.814636e+02
  2.679178e+01    2.808591e+02
  2.681456e+01    2.802709e+02
  2.683735e+01    2.796530e+02
  2.686013e+01    2.790372e+02
  2.688291e+01    2.784093e+02
  2.690570e+01    2.778186e+02
  2.692848e+01    2.772269e+02
  2.695126e+01    2.766200e+02
  2.697404e+01    2.760407e+02
  2.699683e+01    2.754582e+02
  2.701961e+01    2.748276e+02
  2.704239e+01    2.742189e+02
  2.706517e+01    2.736136e+02
  2.708796e+01    2.729973e+02
  2.711074e+01    2.723663e+02
  2.713352e+01    2.717461e+02
  2.715631e+01    2.711545e+02
  2.717909e+01    2.705842e+02
  2.720187e+01    2.702348e+02
  2.722465e+01    2.705116e+02
  2.724744e+01    2.703790e+02
  2.727022e+01    2.701591e+02
  2.729300e+01    2.698421e+02
  2.731579e+01    2.695003e+02
  2.733857e+01    2.691332e+02
  2.736135e+01    2.688026e+02
  2.738413e+01    2.683781e+02
  2.740692e+01    2.678512e+02
  2.742970e+01    2.669619e+02
  2.745248e+01    2.661875e+02
  2.747527e+01    2.654705e+02
  2.749805e+01    2.647841e+02
  2.752083e+01    2.641042e+02
  2.754361e+01    2.634313e+02
  2.756640e+01    2.628299e+02
  2.758918e+01    2.620471e+02
  2.761196e+01    2.606578e+02
  2.763474e+01    2.594517e+02
  2.765753e+01    2.583926e+02
  2.768031e+01    2.573890e+02
  2.770309e+01    2.564115e+02
  2.772588e+01    2.554408e+02
  2.774866e+01    2.545454e+02
  2.777144e+01    2.536140e+02
  2.779422e+01    2.532402e+02
  2.781701e+01    2.534463e+02
  2.783979e+01    2.531703e+02
  2.786257e+01    2.528048e+02
  2.788536e+01    2.523952e+02
  2.790814e+01    2.519443e+02
  2.793092e+01    2.514724e+02
  2.795370e+01    2.510184e+02
  2.797649e+01    2.504797e+02
  2.799927e+01    2.499349e+02
  2.802205e+01    2.494179e+02
  2.804483e+01    2.488744e+02
  2.806762e+01    2.483940e+02
  2.809040e+01    2.478815e+02
  2.811318e+01    2.473251e+02
  2.813597e+01    2.467497e+02
  2.815875e+01    2.462226e+02
  2.818153e+01    2.456859e+02
  2.820431e+01    2.451341e+02
  2.822710e+01    2.445724e+02
  2.824988e+01    2.440319e+02
  2.827266e+01    2.434565e+02
  2.829545e+01    2.429290e+02
  2.831823e+01    2.423955e+02
  2.834101e+01    2.419306e+02
  2.836379e+01    2.413440e+02
  2.838658e+01    2.407589e+02
  2.840936e+01    2.402054e+02
  2.843214e+01    2.396794e+02
  2.845493e+01    2.390874e+02
  2.847771e+01    2.384670e+02
  2.850049e+01    2.379327e+02
  2.852327e+01    2.373559e+02
  2.854606e+01    2.368247e+02
  2.856884e+01    2.362516e+02
  2.859162e+01    2.357040e+02
  2.861440e+01    2.351652e+02
  2.863719e+01    2.346385e+02
  2.865997e+01    2.340921e+02
  2.868275e+01    2.334900e+02
  2.870554e+01    2.329385e+02
  2.872832e+01    2.323700e+02
  2.875110e+01    2.317950e+02
  2.877388e+01    2.312512e+02
  2.879667e+01    2.306530e+02
  2.881945e+01    2.301257e+02
  2.884223e+01    2.295722e+02
  2.886502e+01    2.290293e+02
  2.888780e+01    2.284300e+02
  2.891058e+01    2.279164e+02
  2.893336e+01    2.273636e+02
  2.895615e+01    2.268355e+02
  2.897893e+01    2.263203e+02
  2.900171e+01    2.256959e+02
  2.902450e+01    2.251764e+02
  2.904728e+01    2.246339e+02
  2.907006e+01    2.240707e+02
  2.909284e+01    2.235823e+02
  2.911563e+01    2.229954e+02
  2.913841e+01    2.224199e+02
  2.916119e+01    2.218578e+02
  2.918397e+01    2.213177e+02
  2.920676e+01    2.207593e+02
  2.922954e+01    2.201564e+02
  2.925232e+01    2.196598e+02
  2.927511e+01    2.191262e+02
  2.929789e+01    2.185715e+02
  2.932067e+01    2.180171e+02
  2.934345e+01    2.174489e+02
  2.936624e+01    2.169257e+02
  2.938902e+01    2.163478e+02
  2.941180e+01    2.158660e+02
  2.943459e+01    2.153068e+02
  2.945737e+01    2.147678e+02
  2.948015e+01    2.142286e+02
  2.950293e+01    2.137403e+02
  2.952572e+01    2.131659e+02
  2.954850e+01    2.126581e+02
  2.957128e+01    2.120706e+02
  2.959407e+01    2.115543e+02
  2.961685e+01    2.110407e+02
  2.963963e+01    2.104802e+02
  2.966241e+01    2.099483e+02
  2.968520e+01    2.094060e+02
  2.970798e+01    2.088609e+02
  2.973076e+01    2.083560e+02
  2.975354e+01    2.078577e+02
  2.977633e+01    2.072485e+02
  2.979911e+01    2.067987e+02
  2.982189e+01    2.062922e+02
  2.984468e+01    2.058031e+02
  2.986746e+01    2.052089e+02
  2.989024e+01    2.046938e+02
  2.991302e+01    2.041630e+02
  2.993581e+01    2.035873e+02
  2.995859e+01    2.030868e+02
  2.998137e+01    2.026029e+02
  3.000416e+01    2.020592e+02
  3.002694e+01    2.015406e+02
  3.004972e+01    2.010639e+02
  3.007250e+01    2.005291e+02
  3.009529e+01    1.999692e+02
  3.011807e+01    1.994230e+02
  3.014085e+01    1.988952e+02
  3.016363e+01    1.984040e+02
  3.018642e+01    1.979127e+02
  3.020920e+01    1.973824e+02
  3.023198e+01    1.968696e+02
  3.025477e+01    1.964108e+02
  3.027755e+01    1.959059e+02
  3.030033e+01    1.954259e+02
  3.032311e+01    1.948723e+02
  3.034590e+01    1.943753e+02
  3.036868e+01    1.938254e+02
  3.039146e+01    1.932757e+02
  3.041425e+01    1.927757e+02
  3.043703e+01    1.922953e+02
  3.045981e+01    1.918955e+02
  3.048259e+01    1.913087e+02
  3.050538e+01    1.907971e+02
  3.052816e+01    1.903393e+02
  3.055094e+01    1.899086e+02
  3.057373e+01    1.893850e+02
  3.059651e+01    1.888222e+02
  3.061929e+01    1.883790e+02
  3.064207e+01    1.878783e+02
  3.066486e+01    1.873276e+02
  3.068764e+01    1.868367e+02
  3.071042e+01    1.863856e+02
  3.073320e+01    1.858303e+02
  3.075599e+01    1.852198e+02
  3.077877e+01    1.848095e+02
  3.080155e+01    1.843040e+02
  3.082434e+01    1.838545e+02
  3.084712e+01    1.833474e+02
  3.086990e+01    1.828515e+02
  3.089268e+01    1.823924e+02
  3.091547e+01    1.817563e+02
  3.093825e+01    1.812911e+02
  3.096103e+01    1.808595e+02
  3.098382e+01    1.804111e+02
  3.100660e+01    1.798772e+02
  3.102938e+01    1.794454e+02
  3.105216e+01    1.789872e+02
  3.107495e+01    1.785678e+02
  3.109773e+01    1.781288e+02
  3.112051e+01    1.776447e+02
  3.114330e+01    1.770894e+02
  3.116608e+01    1.765862e+02
  3.118886e+01    1.761883e+02
  3.121164e+01    1.758136e+02
  3.123443e+01    1.752894e+02
  3.125721e+01    1.748667e+02
  3.127999e+01    1.741989e+02
  3.130277e+01    1.737057e+02
  3.132556e+01    1.732710e+02
  3.134834e+01    1.729434e+02
  3.137112e+01    1.723790e+02
  3.139391e+01    1.718401e+02
  3.141669e+01    1.715920e+02
  3.143947e+01    1.710789e+02
  3.146225e+01    1.705111e+02
  3.148504e+01    1.699635e+02
  3.150782e+01    1.693954e+02
  3.153060e+01    1.692386e+02
  3.155339e+01    1.688247e+02
  3.157617e+01    1.683867e+02
  3.159895e+01    1.677070e+02
  3.162173e+01    1.672428e+02
  3.164452e+01    1.667589e+02
  3.166730e+01    1.662827e+02
  3.169008e+01    1.659245e+02
  3.171286e+01    1.654533e+02
  3.173565e+01    1.650495e+02
  3.175843e+01    1.644617e+02
  3.178121e+01    1.639338e+02
  3.180400e+01    1.635325e+02
  3.182678e+01    1.630796e+02
  3.184956e+01    1.625527e+02
  3.187234e+01    1.618967e+02
  3.189513e+01    1.617677e+02
  3.191791e+01    1.612918e+02
  3.194069e+01    1.607682e+02
  3.196348e+01    1.603131e+02
  3.198626e+01    1.598250e+02
  3.200904e+01    1.593663e+02
  3.203182e+01    1.590168e+02
  3.205461e+01    1.584547e+02
  3.207739e+01    1.580114e+02
  3.210017e+01    1.574649e+02
  3.212296e+01    1.569907e+02
  3.214574e+01    1.565529e+02
  3.216852e+01    1.559978e+02
  3.219130e+01    1.555940e+02
  3.221409e+01    1.550625e+02
  3.223687e+01    1.545244e+02
  3.225965e+01    1.539518e+02
  3.228243e+01    1.535828e+02
  3.230522e+01    1.531431e+02
  3.232800e+01    1.526425e+02
  3.235078e+01    1.521237e+02
  3.237357e+01    1.517062e+02
  3.239635e+01    1.511493e+02
  3.241913e+01    1.506713e+02
  3.244191e+01    1.502145e+02
  3.246470e+01    1.496829e+02
  3.248748e+01    1.490616e+02
  3.251026e+01    1.487233e+02
  3.253305e+01    1.482871e+02
  3.255583e+01    1.476142e+02
  3.257861e+01    1.471123e+02
  3.260139e+01    1.466080e+02
  3.262418e+01    1.460267e+02
  3.264696e+01    1.455337e+02
  3.266974e+01    1.450513e+02
  3.269253e+01    1.445507e+02
  3.271531e+01    1.441081e+02
  3.273809e+01    1.435690e+02
  3.276087e+01    1.430628e+02
  3.278366e+01    1.423579e+02
  3.280644e+01    1.420142e+02
  3.282922e+01    1.415082e+02
  3.285200e+01    1.408256e+02
  3.287479e+01    1.405442e+02
  3.289757e+01    1.400237e+02
  3.292035e+01    1.393675e+02
  3.294314e+01    1.389199e+02
  3.296592e+01    1.382304e+02
  3.298870e+01    1.377576e+02
  3.301148e+01    1.373829e+02
  3.303427e+01    1.367677e+02
  3.305705e+01    1.361849e+02
  3.307983e+01    1.356329e+02
  3.310262e+01    1.350323e+02
  3.312540e+01    1.346678e+02
  3.314818e+01    1.340658e+02
  3.317096e+01    1.333133e+02
  3.319375e+01    1.332265e+02
  3.321653e+01    1.326364e+02
  3.323931e+01    1.319143e+02
  3.326209e+01    1.313092e+02
  3.328488e+01    1.308296e+02
  3.330766e+01    1.304525e+02
  3.333044e+01    1.299574e+02
  3.335323e+01    1.292158e+02
  3.337601e+01    1.290286e+02
  3.339879e+01    1.284921e+02
  3.342157e+01    1.278066e+02
  3.344436e+01    1.275473e+02
  3.346714e+01    1.271622e+02
  3.348992e+01    1.265953e+02
  3.351271e+01    1.248500e+02
  3.353549e+01    0.000000e+00
  3.355827e+01    0.000000e+00
  3.358105e+01    0.000000e+00
  3.360384e+01    0.000000e+00
  3.362662e+01    0.000000e+00
  3.364940e+01    0.000000e+00
  3.367219e+01    0.000000e+00
  3.369497e+01    0.000000e+00
  3.371775e+01    0.000000e+00
