# == pyFAI calibration ==
# Distance Sample to Detector: 0.21311058206280517 m
# PONI: 2.037e-01, 1.993e-01 m
# Rotations: -0.005459 0.000134 0.000000 rad
# 
# == Fit2d calibration ==
# Distance Sample-beamCenter: 213.114 mm
# Center: x=1002.134, y=1018.730 pix
# Tilt: 0.313 deg  TiltPlanRot: 1.411 deg
# 
# Detector Perkin detector	 PixelSize= 2.000e-04, 2.000e-04 m
#    Detector has a mask: False 
#    Detector has a dark current: False 
#    detector has a flat field: False 
# 
# Wavelength: 1.675e-11 m
# Mask applied: provided
# Dark current applied: False
# Flat field applied: False
# Polarization factor: None
# Normalization factor: 1.0
# --> data/chi_bkgsub_false/C_Tatania6-15.5-average.chi
#        q_A^-1             I 
  2.199784e-02    1.264130e+02
  4.478064e-02    1.267301e+02
  6.756343e-02    1.271597e+02
  9.034623e-02    1.280094e+02
  1.131290e-01    1.303037e+02
  1.359118e-01    1.324097e+02
  1.586946e-01    1.355936e+02
  1.814774e-01    1.397289e+02
  2.042602e-01    1.452099e+02
  2.270430e-01    1.568144e+02
  2.498258e-01    1.770428e+02
  2.726086e-01    2.132256e+02
  2.953914e-01    4.034313e+02
  3.181742e-01    6.422610e+02
  3.409570e-01    1.039638e+03
  3.637398e-01    1.466947e+03
  3.865226e-01    1.191204e+03
  4.093054e-01    8.836794e+02
  4.320881e-01    7.120717e+02
  4.548709e-01    6.347372e+02
  4.776537e-01    6.827584e+02
  5.004365e-01    7.296947e+02
  5.232193e-01    7.659740e+02
  5.460021e-01    8.136987e+02
  5.687849e-01    8.768876e+02
  5.915677e-01    9.447407e+02
  6.143505e-01    1.033658e+03
  6.371333e-01    1.162307e+03
  6.599161e-01    1.280367e+03
  6.826989e-01    1.398939e+03
  7.054817e-01    1.505405e+03
  7.282645e-01    1.589905e+03
  7.510473e-01    1.656074e+03
  7.738301e-01    1.702901e+03
  7.966129e-01    1.745319e+03
  8.193956e-01    1.789326e+03
  8.421784e-01    1.833082e+03
  8.649612e-01    1.880315e+03
  8.877440e-01    1.932012e+03
  9.105268e-01    1.983455e+03
  9.333096e-01    2.040019e+03
  9.560924e-01    2.101446e+03
  9.788752e-01    2.165041e+03
  1.001658e+00    2.235133e+03
  1.024441e+00    2.308720e+03
  1.047224e+00    2.386250e+03
  1.070006e+00    2.471953e+03
  1.092789e+00    2.562011e+03
  1.115572e+00    2.656904e+03
  1.138355e+00    2.760617e+03
  1.161138e+00    2.868025e+03
  1.183920e+00    2.982314e+03
  1.206703e+00    3.105882e+03
  1.229486e+00    3.231193e+03
  1.252269e+00    3.365700e+03
  1.275052e+00    3.509149e+03
  1.297834e+00    3.646983e+03
  1.320617e+00    3.795710e+03
  1.343400e+00    3.950396e+03
  1.366183e+00    4.102757e+03
  1.388966e+00    4.261349e+03
  1.411748e+00    4.417972e+03
  1.434531e+00    4.572693e+03
  1.457314e+00    4.726080e+03
  1.480097e+00    4.863978e+03
  1.502879e+00    4.997295e+03
  1.525662e+00    5.124532e+03
  1.548445e+00    5.236520e+03
  1.571228e+00    5.336084e+03
  1.594011e+00    5.422309e+03
  1.616793e+00    5.497645e+03
  1.639576e+00    5.553779e+03
  1.662359e+00    5.597503e+03
  1.685142e+00    5.642832e+03
  1.707925e+00    5.683702e+03
  1.730707e+00    5.726890e+03
  1.753490e+00    5.764965e+03
  1.776273e+00    5.772784e+03
  1.799056e+00    5.730950e+03
  1.821839e+00    5.639041e+03
  1.844621e+00    5.529255e+03
  1.867404e+00    5.429465e+03
  1.890187e+00    5.333706e+03
  1.912970e+00    5.252482e+03
  1.935753e+00    5.185114e+03
  1.958535e+00    5.121731e+03
  1.981318e+00    5.060236e+03
  2.004101e+00    5.000472e+03
  2.026884e+00    4.945271e+03
  2.049667e+00    4.886391e+03
  2.072449e+00    4.819604e+03
  2.095232e+00    4.756185e+03
  2.118015e+00    4.689571e+03
  2.140798e+00    4.623190e+03
  2.163581e+00    4.544249e+03
  2.186363e+00    4.459434e+03
  2.209146e+00    4.378479e+03
  2.231929e+00    4.288297e+03
  2.254712e+00    4.194140e+03
  2.277494e+00    4.101027e+03
  2.300277e+00    4.002885e+03
  2.323060e+00    3.901059e+03
  2.345843e+00    3.801874e+03
  2.368626e+00    3.701301e+03
  2.391408e+00    3.603253e+03
  2.414191e+00    3.503424e+03
  2.436974e+00    3.406768e+03
  2.459757e+00    3.317521e+03
  2.482540e+00    3.228750e+03
  2.505322e+00    3.141508e+03
  2.528105e+00    3.061638e+03
  2.550888e+00    2.991206e+03
  2.573671e+00    2.929548e+03
  2.596454e+00    2.876850e+03
  2.619236e+00    2.833620e+03
  2.642019e+00    2.790610e+03
  2.664802e+00    2.741642e+03
  2.687585e+00    2.695982e+03
  2.710368e+00    2.657646e+03
  2.733150e+00    2.633177e+03
  2.755933e+00    2.616394e+03
  2.778716e+00    2.608613e+03
  2.801499e+00    2.610866e+03
  2.824282e+00    2.615178e+03
  2.847064e+00    2.620796e+03
  2.869847e+00    2.628314e+03
  2.892630e+00    2.635579e+03
  2.915413e+00    2.639539e+03
  2.938196e+00    2.642018e+03
  2.960978e+00    2.641450e+03
  2.983761e+00    2.638667e+03
  3.006544e+00    2.633906e+03
  3.029327e+00    2.627817e+03
  3.052110e+00    2.619988e+03
  3.074892e+00    2.608488e+03
  3.097675e+00    2.595399e+03
  3.120458e+00    2.582525e+03
  3.143241e+00    2.570212e+03
  3.166023e+00    2.558070e+03
  3.188806e+00    2.547290e+03
  3.211589e+00    2.539614e+03
  3.234372e+00    2.537076e+03
  3.257155e+00    2.538997e+03
  3.279937e+00    2.543620e+03
  3.302720e+00    2.542489e+03
  3.325503e+00    2.530285e+03
  3.348286e+00    2.508078e+03
  3.371069e+00    2.480866e+03
  3.393851e+00    2.457070e+03
  3.416634e+00    2.438724e+03
  3.439417e+00    2.426114e+03
  3.462200e+00    2.421497e+03
  3.484983e+00    2.420974e+03
  3.507765e+00    2.418890e+03
  3.530548e+00    2.419097e+03
  3.553331e+00    2.420351e+03
  3.576114e+00    2.424849e+03
  3.598897e+00    2.433356e+03
  3.621679e+00    2.448093e+03
  3.644462e+00    2.471507e+03
  3.667245e+00    2.496271e+03
  3.690028e+00    2.518657e+03
  3.712811e+00    2.535368e+03
  3.735593e+00    2.545811e+03
  3.758376e+00    2.550034e+03
  3.781159e+00    2.549496e+03
  3.803942e+00    2.546836e+03
  3.826725e+00    2.543978e+03
  3.849507e+00    2.543205e+03
  3.872290e+00    2.546493e+03
  3.895073e+00    2.556664e+03
  3.917856e+00    2.565235e+03
  3.940638e+00    2.570391e+03
  3.963421e+00    2.579735e+03
  3.986204e+00    2.590176e+03
  4.008987e+00    2.599509e+03
  4.031770e+00    2.608434e+03
  4.054552e+00    2.619627e+03
  4.077335e+00    2.633723e+03
  4.100118e+00    2.639950e+03
  4.122901e+00    2.649140e+03
  4.145684e+00    2.660299e+03
  4.168466e+00    2.673236e+03
  4.191249e+00    2.686840e+03
  4.214032e+00    2.699042e+03
  4.236815e+00    2.708275e+03
  4.259598e+00    2.705955e+03
  4.282380e+00    2.690555e+03
  4.305163e+00    2.677125e+03
  4.327946e+00    2.664250e+03
  4.350729e+00    2.652568e+03
  4.373512e+00    2.641670e+03
  4.396294e+00    2.631391e+03
  4.419077e+00    2.620198e+03
  4.441860e+00    2.607402e+03
  4.464643e+00    2.596651e+03
  4.487426e+00    2.593200e+03
  4.510208e+00    2.578364e+03
  4.532991e+00    2.561128e+03
  4.555774e+00    2.550042e+03
  4.578557e+00    2.539340e+03
  4.601340e+00    2.526987e+03
  4.624122e+00    2.511809e+03
  4.646905e+00    2.497814e+03
  4.669688e+00    2.484954e+03
  4.692471e+00    2.459082e+03
  4.715253e+00    2.436666e+03
  4.738036e+00    2.415876e+03
  4.760819e+00    2.395843e+03
  4.783602e+00    2.376609e+03
  4.806385e+00    2.359499e+03
  4.829167e+00    2.349581e+03
  4.851950e+00    2.335255e+03
  4.874733e+00    2.319912e+03
  4.897516e+00    2.312488e+03
  4.920299e+00    2.307356e+03
  4.943081e+00    2.302725e+03
  4.965864e+00    2.294565e+03
  4.988647e+00    2.282814e+03
  5.011430e+00    2.268932e+03
  5.034213e+00    2.245796e+03
  5.056995e+00    2.228214e+03
  5.079778e+00    2.217664e+03
  5.102561e+00    2.198470e+03
  5.125344e+00    2.181708e+03
  5.148127e+00    2.168159e+03
  5.170909e+00    2.155041e+03
  5.193692e+00    2.141054e+03
  5.216475e+00    2.127410e+03
  5.239258e+00    2.116685e+03
  5.262041e+00    2.103661e+03
  5.284823e+00    2.084676e+03
  5.307606e+00    2.070347e+03
  5.330389e+00    2.056921e+03
  5.353172e+00    2.042570e+03
  5.375955e+00    2.025409e+03
  5.398737e+00    2.005673e+03
  5.421520e+00    1.985871e+03
  5.444303e+00    1.957085e+03
  5.467086e+00    1.929848e+03
  5.489869e+00    1.905560e+03
  5.512651e+00    1.882483e+03
  5.535434e+00    1.860594e+03
  5.558217e+00    1.840084e+03
  5.581000e+00    1.822425e+03
  5.603782e+00    1.803490e+03
  5.626565e+00    1.781963e+03
  5.649348e+00    1.765095e+03
  5.672131e+00    1.749150e+03
  5.694914e+00    1.728942e+03
  5.717696e+00    1.712783e+03
  5.740479e+00    1.698551e+03
  5.763262e+00    1.685242e+03
  5.786045e+00    1.672615e+03
  5.808828e+00    1.661800e+03
  5.831610e+00    1.653860e+03
  5.854393e+00    1.642371e+03
  5.877176e+00    1.631308e+03
  5.899959e+00    1.623343e+03
  5.922742e+00    1.616639e+03
  5.945524e+00    1.610256e+03
  5.968307e+00    1.603997e+03
  5.991090e+00    1.598958e+03
  6.013873e+00    1.591853e+03
  6.036656e+00    1.579786e+03
  6.059438e+00    1.571985e+03
  6.082221e+00    1.565461e+03
  6.105004e+00    1.554582e+03
  6.127787e+00    1.546822e+03
  6.150570e+00    1.541212e+03
  6.173352e+00    1.536572e+03
  6.196135e+00    1.529028e+03
  6.218918e+00    1.521281e+03
  6.241701e+00    1.515517e+03
  6.264484e+00    1.507258e+03
  6.287266e+00    1.498546e+03
  6.310049e+00    1.490869e+03
  6.332832e+00    1.483236e+03
  6.355615e+00    1.475193e+03
  6.378397e+00    1.467421e+03
  6.401180e+00    1.461178e+03
  6.423963e+00    1.455237e+03
  6.446746e+00    1.446858e+03
  6.469529e+00    1.439976e+03
  6.492311e+00    1.433619e+03
  6.515094e+00    1.427822e+03
  6.537877e+00    1.422662e+03
  6.560660e+00    1.417459e+03
  6.583443e+00    1.412226e+03
  6.606225e+00    1.403815e+03
  6.629008e+00    1.394794e+03
  6.651791e+00    1.386916e+03
  6.674574e+00    1.377822e+03
  6.697357e+00    1.368939e+03
  6.720139e+00    1.361776e+03
  6.742922e+00    1.356181e+03
  6.765705e+00    1.350539e+03
  6.788488e+00    1.345271e+03
  6.811271e+00    1.341106e+03
  6.834053e+00    1.336045e+03
  6.856836e+00    1.328852e+03
  6.879619e+00    1.321446e+03
  6.902402e+00    1.314390e+03
  6.925185e+00    1.308184e+03
  6.947967e+00    1.303218e+03
  6.970750e+00    1.299923e+03
  6.993533e+00    1.297106e+03
  7.016316e+00    1.292093e+03
  7.039099e+00    1.286176e+03
  7.061881e+00    1.280212e+03
  7.084664e+00    1.274803e+03
  7.107447e+00    1.270223e+03
  7.130230e+00    1.265776e+03
  7.153013e+00    1.261102e+03
  7.175795e+00    1.256210e+03
  7.198578e+00    1.251420e+03
  7.221361e+00    1.247315e+03
  7.244144e+00    1.244169e+03
  7.266926e+00    1.241727e+03
  7.289709e+00    1.240022e+03
  7.312492e+00    1.239117e+03
  7.335275e+00    1.238894e+03
  7.358058e+00    1.239130e+03
  7.380840e+00    1.239877e+03
  7.403623e+00    1.240510e+03
  7.426406e+00    1.240603e+03
  7.449189e+00    1.240656e+03
  7.471972e+00    1.240890e+03
  7.494754e+00    1.241396e+03
  7.517537e+00    1.242555e+03
  7.540320e+00    1.244546e+03
  7.563103e+00    1.246624e+03
  7.585886e+00    1.248632e+03
  7.608668e+00    1.249928e+03
  7.631451e+00    1.250992e+03
  7.654234e+00    1.252128e+03
  7.677017e+00    1.253210e+03
  7.699800e+00    1.254549e+03
  7.722582e+00    1.256228e+03
  7.745365e+00    1.257899e+03
  7.768148e+00    1.259568e+03
  7.790931e+00    1.261422e+03
  7.813714e+00    1.263295e+03
  7.836496e+00    1.265126e+03
  7.859279e+00    1.266481e+03
  7.882062e+00    1.266569e+03
  7.904845e+00    1.265594e+03
  7.927628e+00    1.263970e+03
  7.950410e+00    1.262444e+03
  7.973193e+00    1.260965e+03
  7.995976e+00    1.259463e+03
  8.018759e+00    1.258057e+03
  8.041541e+00    1.256532e+03
  8.064324e+00    1.254722e+03
  8.087107e+00    1.252237e+03
  8.109890e+00    1.249806e+03
  8.132673e+00    1.247604e+03
  8.155455e+00    1.244386e+03
  8.178238e+00    1.241029e+03
  8.201021e+00    1.237875e+03
  8.223804e+00    1.234935e+03
  8.246587e+00    1.232094e+03
  8.269369e+00    1.229471e+03
  8.292152e+00    1.226705e+03
  8.314935e+00    1.223502e+03
  8.337718e+00    1.220179e+03
  8.360501e+00    1.217347e+03
  8.383283e+00    1.215132e+03
  8.406066e+00    1.212993e+03
  8.428849e+00    1.210135e+03
  8.451632e+00    1.206098e+03
  8.474415e+00    1.201353e+03
  8.497197e+00    1.196410e+03
  8.519980e+00    1.191614e+03
  8.542763e+00    1.187433e+03
  8.565546e+00    1.183461e+03
  8.588329e+00    1.179522e+03
  8.611111e+00    1.175600e+03
  8.633894e+00    1.171351e+03
  8.656677e+00    1.167544e+03
  8.679460e+00    1.164011e+03
  8.702243e+00    1.160503e+03
  8.725025e+00    1.157189e+03
  8.747808e+00    1.154024e+03
  8.770591e+00    1.151094e+03
  8.793374e+00    1.148083e+03
  8.816156e+00    1.144671e+03
  8.838939e+00    1.141392e+03
  8.861722e+00    1.138311e+03
  8.884505e+00    1.135642e+03
  8.907288e+00    1.132805e+03
  8.930070e+00    1.129361e+03
  8.952853e+00    1.125346e+03
  8.975636e+00    1.121188e+03
  8.998419e+00    1.116981e+03
  9.021202e+00    1.112789e+03
  9.043984e+00    1.109025e+03
  9.066767e+00    1.105193e+03
  9.089550e+00    1.100977e+03
  9.112333e+00    1.096499e+03
  9.135116e+00    1.091943e+03
  9.157898e+00    1.087208e+03
  9.180681e+00    1.082331e+03
  9.203464e+00    1.077702e+03
  9.226247e+00    1.073244e+03
  9.249030e+00    1.068674e+03
  9.271812e+00    1.064563e+03
  9.294595e+00    1.060698e+03
  9.317378e+00    1.056829e+03
  9.340161e+00    1.052851e+03
  9.362944e+00    1.048256e+03
  9.385726e+00    1.043255e+03
  9.408509e+00    1.038300e+03
  9.431292e+00    1.033550e+03
  9.454075e+00    1.029064e+03
  9.476858e+00    1.025013e+03
  9.499640e+00    1.021094e+03
  9.522423e+00    1.016918e+03
  9.545206e+00    1.012235e+03
  9.567989e+00    1.007431e+03
  9.590772e+00    1.002551e+03
  9.613554e+00    9.982271e+02
  9.636337e+00    9.939094e+02
  9.659120e+00    9.897443e+02
  9.681903e+00    9.857504e+02
  9.704685e+00    9.817805e+02
  9.727468e+00    9.778560e+02
  9.750251e+00    9.740018e+02
  9.773034e+00    9.705057e+02
  9.795817e+00    9.667146e+02
  9.818599e+00    9.629492e+02
  9.841382e+00    9.593570e+02
  9.864165e+00    9.561786e+02
  9.886948e+00    9.534518e+02
  9.909731e+00    9.508009e+02
  9.932513e+00    9.482709e+02
  9.955296e+00    9.456790e+02
  9.978079e+00    9.432366e+02
  1.000086e+01    9.408860e+02
  1.002364e+01    9.384583e+02
  1.004643e+01    9.362417e+02
  1.006921e+01    9.339570e+02
  1.009199e+01    9.317042e+02
  1.011478e+01    9.295207e+02
  1.013756e+01    9.274815e+02
  1.016034e+01    9.256729e+02
  1.018312e+01    9.238095e+02
  1.020591e+01    9.218270e+02
  1.022869e+01    9.199712e+02
  1.025147e+01    9.181479e+02
  1.027426e+01    9.162397e+02
  1.029704e+01    9.144364e+02
  1.031982e+01    9.127365e+02
  1.034260e+01    9.110397e+02
  1.036539e+01    9.094952e+02
  1.038817e+01    9.082261e+02
  1.041095e+01    9.070873e+02
  1.043373e+01    9.060955e+02
  1.045652e+01    9.049380e+02
  1.047930e+01    9.034410e+02
  1.050208e+01    9.020413e+02
  1.052487e+01    9.007758e+02
  1.054765e+01    8.998086e+02
  1.057043e+01    8.989581e+02
  1.059321e+01    8.979756e+02
  1.061600e+01    8.966899e+02
  1.063878e+01    8.950684e+02
  1.066156e+01    8.934330e+02
  1.068435e+01    8.918358e+02
  1.070713e+01    8.903283e+02
  1.072991e+01    8.886277e+02
  1.075269e+01    8.869009e+02
  1.077548e+01    8.849415e+02
  1.079826e+01    8.828897e+02
  1.082104e+01    8.808745e+02
  1.084383e+01    8.788070e+02
  1.086661e+01    8.767646e+02
  1.088939e+01    8.748489e+02
  1.091217e+01    8.730468e+02
  1.093496e+01    8.714071e+02
  1.095774e+01    8.697838e+02
  1.098052e+01    8.682463e+02
  1.100330e+01    8.669084e+02
  1.102609e+01    8.655334e+02
  1.104887e+01    8.640362e+02
  1.107165e+01    8.625756e+02
  1.109444e+01    8.610355e+02
  1.111722e+01    8.594753e+02
  1.114000e+01    8.577826e+02
  1.116278e+01    8.558017e+02
  1.118557e+01    8.537018e+02
  1.120835e+01    8.519163e+02
  1.123113e+01    8.501476e+02
  1.125392e+01    8.484988e+02
  1.127670e+01    8.468965e+02
  1.129948e+01    8.454015e+02
  1.132226e+01    8.439376e+02
  1.134505e+01    8.423939e+02
  1.136783e+01    8.409686e+02
  1.139061e+01    8.397518e+02
  1.141340e+01    8.385150e+02
  1.143618e+01    8.372631e+02
  1.145896e+01    8.363870e+02
  1.148174e+01    8.355151e+02
  1.150453e+01    8.348575e+02
  1.152731e+01    8.341051e+02
  1.155009e+01    8.334557e+02
  1.157287e+01    8.327870e+02
  1.159566e+01    8.320806e+02
  1.161844e+01    8.312333e+02
  1.164122e+01    8.302991e+02
  1.166401e+01    8.295707e+02
  1.168679e+01    8.288499e+02
  1.170957e+01    8.281492e+02
  1.173235e+01    8.273548e+02
  1.175514e+01    8.264058e+02
  1.177792e+01    8.255709e+02
  1.180070e+01    8.248849e+02
  1.182349e+01    8.242064e+02
  1.184627e+01    8.234949e+02
  1.186905e+01    8.229109e+02
  1.189183e+01    8.225239e+02
  1.191462e+01    8.222587e+02
  1.193740e+01    8.219116e+02
  1.196018e+01    8.217740e+02
  1.198296e+01    8.214920e+02
  1.200575e+01    8.212902e+02
  1.202853e+01    8.210229e+02
  1.205131e+01    8.206502e+02
  1.207410e+01    8.201995e+02
  1.209688e+01    8.198205e+02
  1.211966e+01    8.193873e+02
  1.214244e+01    8.189263e+02
  1.216523e+01    8.185077e+02
  1.218801e+01    8.180283e+02
  1.221079e+01    8.175618e+02
  1.223358e+01    8.169895e+02
  1.225636e+01    8.162401e+02
  1.227914e+01    8.154415e+02
  1.230192e+01    8.146973e+02
  1.232471e+01    8.139616e+02
  1.234749e+01    8.131863e+02
  1.237027e+01    8.122831e+02
  1.239306e+01    8.113497e+02
  1.241584e+01    8.102423e+02
  1.243862e+01    8.092104e+02
  1.246140e+01    8.083229e+02
  1.248419e+01    8.071857e+02
  1.250697e+01    8.060235e+02
  1.252975e+01    8.047103e+02
  1.255253e+01    8.031708e+02
  1.257532e+01    8.015725e+02
  1.259810e+01    7.998727e+02
  1.262088e+01    7.982018e+02
  1.264367e+01    7.966005e+02
  1.266645e+01    7.950447e+02
  1.268923e+01    7.932745e+02
  1.271201e+01    7.914033e+02
  1.273480e+01    7.894730e+02
  1.275758e+01    7.875889e+02
  1.278036e+01    7.858213e+02
  1.280315e+01    7.840280e+02
  1.282593e+01    7.823148e+02
  1.284871e+01    7.806507e+02
  1.287149e+01    7.790229e+02
  1.289428e+01    7.772395e+02
  1.291706e+01    7.754741e+02
  1.293984e+01    7.735371e+02
  1.296263e+01    7.716646e+02
  1.298541e+01    7.697463e+02
  1.300819e+01    7.678181e+02
  1.303097e+01    7.659383e+02
  1.305376e+01    7.639595e+02
  1.307654e+01    7.619664e+02
  1.309932e+01    7.599572e+02
  1.312210e+01    7.581378e+02
  1.314489e+01    7.562109e+02
  1.316767e+01    7.543379e+02
  1.319045e+01    7.525276e+02
  1.321324e+01    7.508176e+02
  1.323602e+01    7.489984e+02
  1.325880e+01    7.473167e+02
  1.328158e+01    7.456782e+02
  1.330437e+01    7.440838e+02
  1.332715e+01    7.425724e+02
  1.334993e+01    7.409493e+02
  1.337272e+01    7.393505e+02
  1.339550e+01    7.377710e+02
  1.341828e+01    7.361531e+02
  1.344106e+01    7.344970e+02
  1.346385e+01    7.328502e+02
  1.348663e+01    7.312180e+02
  1.350941e+01    7.295357e+02
  1.353219e+01    7.277990e+02
  1.355498e+01    7.260703e+02
  1.357776e+01    7.243011e+02
  1.360054e+01    7.226848e+02
  1.362333e+01    7.211542e+02
  1.364611e+01    7.196943e+02
  1.366889e+01    7.182401e+02
  1.369167e+01    7.167914e+02
  1.371446e+01    7.153468e+02
  1.373724e+01    7.140207e+02
  1.376002e+01    7.127517e+02
  1.378281e+01    7.113911e+02
  1.380559e+01    7.101199e+02
  1.382837e+01    7.088040e+02
  1.385115e+01    7.076982e+02
  1.387394e+01    7.066720e+02
  1.389672e+01    7.054708e+02
  1.391950e+01    7.043232e+02
  1.394229e+01    7.032887e+02
  1.396507e+01    7.020082e+02
  1.398785e+01    7.007188e+02
  1.401063e+01    6.995125e+02
  1.403342e+01    6.984576e+02
  1.405620e+01    6.974561e+02
  1.407898e+01    6.963871e+02
  1.410176e+01    6.954051e+02
  1.412455e+01    6.944163e+02
  1.414733e+01    6.934566e+02
  1.417011e+01    6.924966e+02
  1.419290e+01    6.915698e+02
  1.421568e+01    6.907227e+02
  1.423846e+01    6.898201e+02
  1.426124e+01    6.889073e+02
  1.428403e+01    6.879570e+02
  1.430681e+01    6.868610e+02
  1.432959e+01    6.858239e+02
  1.435238e+01    6.847996e+02
  1.437516e+01    6.837756e+02
  1.439794e+01    6.828342e+02
  1.442072e+01    6.819325e+02
  1.444351e+01    6.810792e+02
  1.446629e+01    6.802211e+02
  1.448907e+01    6.794244e+02
  1.451186e+01    6.786385e+02
  1.453464e+01    6.778704e+02
  1.455742e+01    6.770739e+02
  1.458020e+01    6.763390e+02
  1.460299e+01    6.755753e+02
  1.462577e+01    6.747195e+02
  1.464855e+01    6.738920e+02
  1.467133e+01    6.730247e+02
  1.469412e+01    6.721939e+02
  1.471690e+01    6.713998e+02
  1.473968e+01    6.705228e+02
  1.476247e+01    6.697487e+02
  1.478525e+01    6.690109e+02
  1.480803e+01    6.681347e+02
  1.483081e+01    6.673390e+02
  1.485360e+01    6.665455e+02
  1.487638e+01    6.658438e+02
  1.489916e+01    6.651279e+02
  1.492195e+01    6.644246e+02
  1.494473e+01    6.636346e+02
  1.496751e+01    6.628004e+02
  1.499029e+01    6.619313e+02
  1.501308e+01    6.611421e+02
  1.503586e+01    6.606922e+02
  1.505864e+01    6.597568e+02
  1.508142e+01    6.588653e+02
  1.510421e+01    6.579902e+02
  1.512699e+01    6.570574e+02
  1.514977e+01    6.561831e+02
  1.517256e+01    6.553201e+02
  1.519534e+01    6.544744e+02
  1.521812e+01    6.536996e+02
  1.524090e+01    6.529672e+02
  1.526369e+01    6.521138e+02
  1.528647e+01    6.513169e+02
  1.530925e+01    6.504794e+02
  1.533204e+01    6.496158e+02
  1.535482e+01    6.487745e+02
  1.537760e+01    6.479674e+02
  1.540038e+01    6.471503e+02
  1.542317e+01    6.462568e+02
  1.544595e+01    6.453610e+02
  1.546873e+01    6.443902e+02
  1.549152e+01    6.434714e+02
  1.551430e+01    6.427001e+02
  1.553708e+01    6.419371e+02
  1.555986e+01    6.411581e+02
  1.558265e+01    6.403911e+02
  1.560543e+01    6.395410e+02
  1.562821e+01    6.387098e+02
  1.565099e+01    6.378560e+02
  1.567378e+01    6.369907e+02
  1.569656e+01    6.361337e+02
  1.571934e+01    6.352262e+02
  1.574213e+01    6.343025e+02
  1.576491e+01    6.334567e+02
  1.578769e+01    6.326617e+02
  1.581047e+01    6.317683e+02
  1.583326e+01    6.309022e+02
  1.585604e+01    6.300331e+02
  1.587882e+01    6.291724e+02
  1.590161e+01    6.283730e+02
  1.592439e+01    6.275183e+02
  1.594717e+01    6.267889e+02
  1.596995e+01    6.259451e+02
  1.599274e+01    6.252104e+02
  1.601552e+01    6.244999e+02
  1.603830e+01    6.237277e+02
  1.606109e+01    6.229464e+02
  1.608387e+01    6.222031e+02
  1.610665e+01    6.214786e+02
  1.612943e+01    6.207864e+02
  1.615222e+01    6.200196e+02
  1.617500e+01    6.192469e+02
  1.619778e+01    6.185905e+02
  1.622056e+01    6.178688e+02
  1.624335e+01    6.171567e+02
  1.626613e+01    6.164120e+02
  1.628891e+01    6.157110e+02
  1.631170e+01    6.149724e+02
  1.633448e+01    6.142870e+02
  1.635726e+01    6.136251e+02
  1.638004e+01    6.129553e+02
  1.640283e+01    6.122423e+02
  1.642561e+01    6.114324e+02
  1.644839e+01    6.107355e+02
  1.647118e+01    6.100196e+02
  1.649396e+01    6.092708e+02
  1.651674e+01    6.085384e+02
  1.653952e+01    6.077578e+02
  1.656231e+01    6.070004e+02
  1.658509e+01    6.061983e+02
  1.660787e+01    6.054728e+02
  1.663065e+01    6.047366e+02
  1.665344e+01    6.039849e+02
  1.667622e+01    6.032078e+02
  1.669900e+01    6.024099e+02
  1.672179e+01    6.015775e+02
  1.674457e+01    6.007060e+02
  1.676735e+01    5.998235e+02
  1.679013e+01    5.989407e+02
  1.681292e+01    5.980000e+02
  1.683570e+01    5.970719e+02
  1.685848e+01    5.961821e+02
  1.688127e+01    5.952886e+02
  1.690405e+01    5.944218e+02
  1.692683e+01    5.935536e+02
  1.694961e+01    5.925531e+02
  1.697240e+01    5.915765e+02
  1.699518e+01    5.906365e+02
  1.701796e+01    5.895878e+02
  1.704075e+01    5.885173e+02
  1.706353e+01    5.875488e+02
  1.708631e+01    5.865499e+02
  1.710909e+01    5.855284e+02
  1.713188e+01    5.844637e+02
  1.715466e+01    5.833791e+02
  1.717744e+01    5.822766e+02
  1.720022e+01    5.812425e+02
  1.722301e+01    5.801898e+02
  1.724579e+01    5.791212e+02
  1.726857e+01    5.781337e+02
  1.729136e+01    5.771298e+02
  1.731414e+01    5.761552e+02
  1.733692e+01    5.751184e+02
  1.735970e+01    5.739925e+02
  1.738249e+01    5.728714e+02
  1.740527e+01    5.718266e+02
  1.742805e+01    5.707909e+02
  1.745084e+01    5.698014e+02
  1.747362e+01    5.687173e+02
  1.749640e+01    5.676900e+02
  1.751918e+01    5.665944e+02
  1.754197e+01    5.654648e+02
  1.756475e+01    5.644417e+02
  1.758753e+01    5.634668e+02
  1.761032e+01    5.624542e+02
  1.763310e+01    5.615104e+02
  1.765588e+01    5.604622e+02
  1.767866e+01    5.595185e+02
  1.770145e+01    5.584739e+02
  1.772423e+01    5.575024e+02
  1.774701e+01    5.565529e+02
  1.776979e+01    5.556087e+02
  1.779258e+01    5.546383e+02
  1.781536e+01    5.536973e+02
  1.783814e+01    5.528097e+02
  1.786093e+01    5.519759e+02
  1.788371e+01    5.510821e+02
  1.790649e+01    5.501357e+02
  1.792927e+01    5.492288e+02
  1.795206e+01    5.483283e+02
  1.797484e+01    5.473920e+02
  1.799762e+01    5.465532e+02
  1.802041e+01    5.457421e+02
  1.804319e+01    5.449725e+02
  1.806597e+01    5.440924e+02
  1.808875e+01    5.432316e+02
  1.811154e+01    5.423951e+02
  1.813432e+01    5.415725e+02
  1.815710e+01    5.408181e+02
  1.817989e+01    5.399905e+02
  1.820267e+01    5.391387e+02
  1.822545e+01    5.383683e+02
  1.824823e+01    5.376008e+02
  1.827102e+01    5.368657e+02
  1.829380e+01    5.361060e+02
  1.831658e+01    5.353589e+02
  1.833936e+01    5.345541e+02
  1.836215e+01    5.337227e+02
  1.838493e+01    5.329637e+02
  1.840771e+01    5.322473e+02
  1.843050e+01    5.315143e+02
  1.845328e+01    5.307623e+02
  1.847606e+01    5.300287e+02
  1.849884e+01    5.293493e+02
  1.852163e+01    5.285908e+02
  1.854441e+01    5.278416e+02
  1.856719e+01    5.270704e+02
  1.858998e+01    5.264363e+02
  1.861276e+01    5.257643e+02
  1.863554e+01    5.251111e+02
  1.865832e+01    5.244236e+02
  1.868111e+01    5.237238e+02
  1.870389e+01    5.230726e+02
  1.872667e+01    5.224443e+02
  1.874945e+01    5.217939e+02
  1.877224e+01    5.210220e+02
  1.879502e+01    5.203398e+02
  1.881780e+01    5.196617e+02
  1.884059e+01    5.190520e+02
  1.886337e+01    5.184068e+02
  1.888615e+01    5.177631e+02
  1.890893e+01    5.170665e+02
  1.893172e+01    5.163837e+02
  1.895450e+01    5.156845e+02
  1.897728e+01    5.150119e+02
  1.900007e+01    5.143073e+02
  1.902285e+01    5.136838e+02
  1.904563e+01    5.130292e+02
  1.906841e+01    5.123447e+02
  1.909120e+01    5.116935e+02
  1.911398e+01    5.110015e+02
  1.913676e+01    5.103155e+02
  1.915955e+01    5.096316e+02
  1.918233e+01    5.090201e+02
  1.920511e+01    5.084212e+02
  1.922789e+01    5.077161e+02
  1.925068e+01    5.070641e+02
  1.927346e+01    5.064052e+02
  1.929624e+01    5.056374e+02
  1.931902e+01    5.049108e+02
  1.934181e+01    5.042778e+02
  1.936459e+01    5.036536e+02
  1.938737e+01    5.029182e+02
  1.941016e+01    5.022705e+02
  1.943294e+01    5.015746e+02
  1.945572e+01    5.009128e+02
  1.947850e+01    5.002202e+02
  1.950129e+01    4.994667e+02
  1.952407e+01    4.988053e+02
  1.954685e+01    4.981420e+02
  1.956964e+01    4.975232e+02
  1.959242e+01    4.968807e+02
  1.961520e+01    4.962326e+02
  1.963798e+01    4.954886e+02
  1.966077e+01    4.948444e+02
  1.968355e+01    4.941521e+02
  1.970633e+01    4.933958e+02
  1.972912e+01    4.926191e+02
  1.975190e+01    4.919039e+02
  1.977468e+01    4.911572e+02
  1.979746e+01    4.904464e+02
  1.982025e+01    4.897517e+02
  1.984303e+01    4.890484e+02
  1.986581e+01    4.883974e+02
  1.988859e+01    4.876541e+02
  1.991138e+01    4.869379e+02
  1.993416e+01    4.862187e+02
  1.995694e+01    4.854381e+02
  1.997973e+01    4.846460e+02
  2.000251e+01    4.839201e+02
  2.002529e+01    4.831795e+02
  2.004807e+01    4.824701e+02
  2.007086e+01    4.816699e+02
  2.009364e+01    4.809214e+02
  2.011642e+01    4.801283e+02
  2.013921e+01    4.793157e+02
  2.016199e+01    4.785488e+02
  2.018477e+01    4.777856e+02
  2.020755e+01    4.769654e+02
  2.023034e+01    4.762463e+02
  2.025312e+01    4.754709e+02
  2.027590e+01    4.746828e+02
  2.029868e+01    4.738582e+02
  2.032147e+01    4.730264e+02
  2.034425e+01    4.722686e+02
  2.036703e+01    4.714752e+02
  2.038982e+01    4.707227e+02
  2.041260e+01    4.699096e+02
  2.043538e+01    4.691472e+02
  2.045816e+01    4.683817e+02
  2.048095e+01    4.676455e+02
  2.050373e+01    4.668809e+02
  2.052651e+01    4.661118e+02
  2.054930e+01    4.653980e+02
  2.057208e+01    4.646331e+02
  2.059486e+01    4.638908e+02
  2.061764e+01    4.631720e+02
  2.064043e+01    4.624769e+02
  2.066321e+01    4.617446e+02
  2.068599e+01    4.609978e+02
  2.070878e+01    4.602793e+02
  2.073156e+01    4.595871e+02
  2.075434e+01    4.588377e+02
  2.077712e+01    4.580215e+02
  2.079991e+01    4.572478e+02
  2.082269e+01    4.565195e+02
  2.084547e+01    4.557746e+02
  2.086825e+01    4.550092e+02
  2.089104e+01    4.543083e+02
  2.091382e+01    4.535376e+02
  2.093660e+01    4.528142e+02
  2.095939e+01    4.520746e+02
  2.098217e+01    4.512952e+02
  2.100495e+01    4.505479e+02
  2.102773e+01    4.498541e+02
  2.105052e+01    4.490577e+02
  2.107330e+01    4.482667e+02
  2.109608e+01    4.474690e+02
  2.111887e+01    4.467076e+02
  2.114165e+01    4.460219e+02
  2.116443e+01    4.452635e+02
  2.118721e+01    4.444814e+02
  2.121000e+01    4.437178e+02
  2.123278e+01    4.430001e+02
  2.125556e+01    4.422398e+02
  2.127835e+01    4.414769e+02
  2.130113e+01    4.407244e+02
  2.132391e+01    4.399542e+02
  2.134669e+01    4.392059e+02
  2.136948e+01    4.384739e+02
  2.139226e+01    4.377857e+02
  2.141504e+01    4.372343e+02
  2.143782e+01    4.367754e+02
  2.146061e+01    4.358823e+02
  2.148339e+01    4.350806e+02
  2.150617e+01    4.342216e+02
  2.152896e+01    4.334670e+02
  2.155174e+01    4.327534e+02
  2.157452e+01    4.319668e+02
  2.159730e+01    4.312521e+02
  2.162009e+01    4.305080e+02
  2.164287e+01    4.297283e+02
  2.166565e+01    4.289615e+02
  2.168844e+01    4.281868e+02
  2.171122e+01    4.274774e+02
  2.173400e+01    4.267243e+02
  2.175678e+01    4.260120e+02
  2.177957e+01    4.253279e+02
  2.180235e+01    4.245393e+02
  2.182513e+01    4.237943e+02
  2.184791e+01    4.230345e+02
  2.187070e+01    4.223262e+02
  2.189348e+01    4.215995e+02
  2.191626e+01    4.208709e+02
  2.193905e+01    4.201553e+02
  2.196183e+01    4.194485e+02
  2.198461e+01    4.187415e+02
  2.200739e+01    4.180313e+02
  2.203018e+01    4.172821e+02
  2.205296e+01    4.166013e+02
  2.207574e+01    4.159083e+02
  2.209853e+01    4.151929e+02
  2.212131e+01    4.144935e+02
  2.214409e+01    4.137755e+02
  2.216687e+01    4.130573e+02
  2.218966e+01    4.123690e+02
  2.221244e+01    4.116557e+02
  2.223522e+01    4.110348e+02
  2.225801e+01    4.103230e+02
  2.228079e+01    4.096460e+02
  2.230357e+01    4.088905e+02
  2.232635e+01    4.081989e+02
  2.234914e+01    4.074009e+02
  2.237192e+01    4.067289e+02
  2.239470e+01    4.060264e+02
  2.241748e+01    4.053276e+02
  2.244027e+01    4.046622e+02
  2.246305e+01    4.040142e+02
  2.248583e+01    4.033135e+02
  2.250862e+01    4.026502e+02
  2.253140e+01    4.019906e+02
  2.255418e+01    4.012974e+02
  2.257696e+01    4.006052e+02
  2.259975e+01    3.999526e+02
  2.262253e+01    3.992457e+02
  2.264531e+01    3.986042e+02
  2.266810e+01    3.979522e+02
  2.269088e+01    3.973076e+02
  2.271366e+01    3.966346e+02
  2.273644e+01    3.959959e+02
  2.275923e+01    3.953336e+02
  2.278201e+01    3.946689e+02
  2.280479e+01    3.940478e+02
  2.282758e+01    3.933737e+02
  2.285036e+01    3.927147e+02
  2.287314e+01    3.920574e+02
  2.289592e+01    3.914145e+02
  2.291871e+01    3.907605e+02
  2.294149e+01    3.901131e+02
  2.296427e+01    3.894508e+02
  2.298705e+01    3.888016e+02
  2.300984e+01    3.881558e+02
  2.303262e+01    3.875330e+02
  2.305540e+01    3.868495e+02
  2.307819e+01    3.862214e+02
  2.310097e+01    3.855656e+02
  2.312375e+01    3.848813e+02
  2.314653e+01    3.842056e+02
  2.316932e+01    3.835324e+02
  2.319210e+01    3.829155e+02
  2.321488e+01    3.822990e+02
  2.323767e+01    3.816536e+02
  2.326045e+01    3.810338e+02
  2.328323e+01    3.803459e+02
  2.330601e+01    3.796864e+02
  2.332880e+01    3.789860e+02
  2.335158e+01    3.783453e+02
  2.337436e+01    3.777141e+02
  2.339714e+01    3.770821e+02
  2.341993e+01    3.764563e+02
  2.344271e+01    3.758325e+02
  2.346549e+01    3.751503e+02
  2.348828e+01    3.745399e+02
  2.351106e+01    3.738452e+02
  2.353384e+01    3.731699e+02
  2.355662e+01    3.725355e+02
  2.357941e+01    3.718962e+02
  2.360219e+01    3.712453e+02
  2.362497e+01    3.705905e+02
  2.364776e+01    3.699265e+02
  2.367054e+01    3.692933e+02
  2.369332e+01    3.688764e+02
  2.371610e+01    3.683311e+02
  2.373889e+01    3.675640e+02
  2.376167e+01    3.668223e+02
  2.378445e+01    3.661199e+02
  2.380724e+01    3.654636e+02
  2.383002e+01    3.647856e+02
  2.385280e+01    3.640617e+02
  2.387558e+01    3.633841e+02
  2.389837e+01    3.627032e+02
  2.392115e+01    3.620384e+02
  2.394393e+01    3.613763e+02
  2.396671e+01    3.606741e+02
  2.398950e+01    3.599923e+02
  2.401228e+01    3.593782e+02
  2.403506e+01    3.587339e+02
  2.405785e+01    3.580641e+02
  2.408063e+01    3.574362e+02
  2.410341e+01    3.567523e+02
  2.412619e+01    3.560512e+02
  2.414898e+01    3.554159e+02
  2.417176e+01    3.546987e+02
  2.419454e+01    3.540694e+02
  2.421733e+01    3.534494e+02
  2.424011e+01    3.528402e+02
  2.426289e+01    3.521217e+02
  2.428567e+01    3.513881e+02
  2.430846e+01    3.507310e+02
  2.433124e+01    3.501478e+02
  2.435402e+01    3.494682e+02
  2.437681e+01    3.487898e+02
  2.439959e+01    3.481044e+02
  2.442237e+01    3.474391e+02
  2.444515e+01    3.467598e+02
  2.446794e+01    3.460646e+02
  2.449072e+01    3.453959e+02
  2.451350e+01    3.447255e+02
  2.453628e+01    3.440729e+02
  2.455907e+01    3.434310e+02
  2.458185e+01    3.427774e+02
  2.460463e+01    3.421078e+02
  2.462742e+01    3.414269e+02
  2.465020e+01    3.407559e+02
  2.467298e+01    3.400653e+02
  2.469576e+01    3.394134e+02
  2.471855e+01    3.387095e+02
  2.474133e+01    3.380163e+02
  2.476411e+01    3.374059e+02
  2.478690e+01    3.367732e+02
  2.480968e+01    3.360957e+02
  2.483246e+01    3.354463e+02
  2.485524e+01    3.347289e+02
  2.487803e+01    3.340677e+02
  2.490081e+01    3.334135e+02
  2.492359e+01    3.327560e+02
  2.494637e+01    3.320570e+02
  2.496916e+01    3.313523e+02
  2.499194e+01    3.307235e+02
  2.501472e+01    3.300563e+02
  2.503751e+01    3.293817e+02
  2.506029e+01    3.287188e+02
  2.508307e+01    3.280692e+02
  2.510585e+01    3.274146e+02
  2.512864e+01    3.267253e+02
  2.515142e+01    3.260532e+02
  2.517420e+01    3.254149e+02
  2.519699e+01    3.247177e+02
  2.521977e+01    3.240074e+02
  2.524255e+01    3.233800e+02
  2.526533e+01    3.227819e+02
  2.528812e+01    3.221129e+02
  2.531090e+01    3.214482e+02
  2.533368e+01    3.208164e+02
  2.535647e+01    3.202090e+02
  2.537925e+01    3.196063e+02
  2.540203e+01    3.189594e+02
  2.542481e+01    3.182930e+02
  2.544760e+01    3.176750e+02
  2.547038e+01    3.170689e+02
  2.549316e+01    3.164538e+02
  2.551594e+01    3.158066e+02
  2.553873e+01    3.151303e+02
  2.556151e+01    3.144999e+02
  2.558429e+01    3.138593e+02
  2.560708e+01    3.132032e+02
  2.562986e+01    3.125912e+02
  2.565264e+01    3.119708e+02
  2.567542e+01    3.112686e+02
  2.569821e+01    3.106773e+02
  2.572099e+01    3.100942e+02
  2.574377e+01    3.094991e+02
  2.576656e+01    3.088420e+02
  2.578934e+01    3.082083e+02
  2.581212e+01    3.075797e+02
  2.583490e+01    3.069563e+02
  2.585769e+01    3.063170e+02
  2.588047e+01    3.056870e+02
  2.590325e+01    3.050877e+02
  2.592604e+01    3.044621e+02
  2.594882e+01    3.038354e+02
  2.597160e+01    3.032417e+02
  2.599438e+01    3.026196e+02
  2.601717e+01    3.019935e+02
  2.603995e+01    3.013848e+02
  2.606273e+01    3.007634e+02
  2.608551e+01    3.001535e+02
  2.610830e+01    2.995343e+02
  2.613108e+01    2.989161e+02
  2.615386e+01    2.983032e+02
  2.617665e+01    2.977065e+02
  2.619943e+01    2.970890e+02
  2.622221e+01    2.964520e+02
  2.624499e+01    2.958398e+02
  2.626778e+01    2.952785e+02
  2.629056e+01    2.946998e+02
  2.631334e+01    2.941104e+02
  2.633613e+01    2.934582e+02
  2.635891e+01    2.928386e+02
  2.638169e+01    2.922607e+02
  2.640447e+01    2.916245e+02
  2.642726e+01    2.910007e+02
  2.645004e+01    2.903640e+02
  2.647282e+01    2.897255e+02
  2.649560e+01    2.891267e+02
  2.651839e+01    2.885284e+02
  2.654117e+01    2.879287e+02
  2.656395e+01    2.873191e+02
  2.658674e+01    2.867321e+02
  2.660952e+01    2.861058e+02
  2.663230e+01    2.854936e+02
  2.665508e+01    2.848693e+02
  2.667787e+01    2.842671e+02
  2.670065e+01    2.836647e+02
  2.672343e+01    2.830832e+02
  2.674622e+01    2.824851e+02
  2.676900e+01    2.818688e+02
  2.679178e+01    2.812686e+02
  2.681456e+01    2.807039e+02
  2.683735e+01    2.800604e+02
  2.686013e+01    2.794054e+02
  2.688291e+01    2.788036e+02
  2.690570e+01    2.782129e+02
  2.692848e+01    2.776175e+02
  2.695126e+01    2.769920e+02
  2.697404e+01    2.763961e+02
  2.699683e+01    2.758003e+02
  2.701961e+01    2.752092e+02
  2.704239e+01    2.745654e+02
  2.706517e+01    2.739319e+02
  2.708796e+01    2.733085e+02
  2.711074e+01    2.726814e+02
  2.713352e+01    2.720917e+02
  2.715631e+01    2.714713e+02
  2.717909e+01    2.709001e+02
  2.720187e+01    2.706068e+02
  2.722465e+01    2.708761e+02
  2.724744e+01    2.707483e+02
  2.727022e+01    2.705022e+02
  2.729300e+01    2.701865e+02
  2.731579e+01    2.698252e+02
  2.733857e+01    2.694508e+02
  2.736135e+01    2.690909e+02
  2.738413e+01    2.686513e+02
  2.740692e+01    2.681508e+02
  2.742970e+01    2.672227e+02
  2.745248e+01    2.664329e+02
  2.747527e+01    2.657334e+02
  2.749805e+01    2.650509e+02
  2.752083e+01    2.643667e+02
  2.754361e+01    2.637179e+02
  2.756640e+01    2.630642e+02
  2.758918e+01    2.623343e+02
  2.761196e+01    2.609264e+02
  2.763474e+01    2.596808e+02
  2.765753e+01    2.586259e+02
  2.768031e+01    2.576283e+02
  2.770309e+01    2.567134e+02
  2.772588e+01    2.557807e+02
  2.774866e+01    2.548584e+02
  2.777144e+01    2.539578e+02
  2.779422e+01    2.535986e+02
  2.781701e+01    2.538040e+02
  2.783979e+01    2.535521e+02
  2.786257e+01    2.531813e+02
  2.788536e+01    2.527775e+02
  2.790814e+01    2.523446e+02
  2.793092e+01    2.518525e+02
  2.795370e+01    2.513705e+02
  2.797649e+01    2.508127e+02
  2.799927e+01    2.503163e+02
  2.802205e+01    2.498149e+02
  2.804483e+01    2.493104e+02
  2.806762e+01    2.487708e+02
  2.809040e+01    2.482771e+02
  2.811318e+01    2.477620e+02
  2.813597e+01    2.471964e+02
  2.815875e+01    2.466622e+02
  2.818153e+01    2.461300e+02
  2.820431e+01    2.455673e+02
  2.822710e+01    2.449681e+02
  2.824988e+01    2.444881e+02
  2.827266e+01    2.439350e+02
  2.829545e+01    2.434147e+02
  2.831823e+01    2.427974e+02
  2.834101e+01    2.423150e+02
  2.836379e+01    2.417325e+02
  2.838658e+01    2.411349e+02
  2.840936e+01    2.406008e+02
  2.843214e+01    2.400361e+02
  2.845493e+01    2.394670e+02
  2.847771e+01    2.389231e+02
  2.850049e+01    2.383805e+02
  2.852327e+01    2.378449e+02
  2.854606e+01    2.372856e+02
  2.856884e+01    2.367782e+02
  2.859162e+01    2.362153e+02
  2.861440e+01    2.356151e+02
  2.863719e+01    2.351007e+02
  2.865997e+01    2.345188e+02
  2.868275e+01    2.339436e+02
  2.870554e+01    2.333645e+02
  2.872832e+01    2.328268e+02
  2.875110e+01    2.322404e+02
  2.877388e+01    2.316788e+02
  2.879667e+01    2.311792e+02
  2.881945e+01    2.305626e+02
  2.884223e+01    2.299564e+02
  2.886502e+01    2.294019e+02
  2.888780e+01    2.288994e+02
  2.891058e+01    2.282847e+02
  2.893336e+01    2.277366e+02
  2.895615e+01    2.272126e+02
  2.897893e+01    2.266845e+02
  2.900171e+01    2.261481e+02
  2.902450e+01    2.255251e+02
  2.904728e+01    2.250250e+02
  2.907006e+01    2.244958e+02
  2.909284e+01    2.239115e+02
  2.911563e+01    2.233992e+02
  2.913841e+01    2.228578e+02
  2.916119e+01    2.222804e+02
  2.918397e+01    2.216877e+02
  2.920676e+01    2.211357e+02
  2.922954e+01    2.205912e+02
  2.925232e+01    2.200380e+02
  2.927511e+01    2.195259e+02
  2.929789e+01    2.188986e+02
  2.932067e+01    2.183323e+02
  2.934345e+01    2.177802e+02
  2.936624e+01    2.173062e+02
  2.938902e+01    2.167699e+02
  2.941180e+01    2.162044e+02
  2.943459e+01    2.156348e+02
  2.945737e+01    2.150615e+02
  2.948015e+01    2.144851e+02
  2.950293e+01    2.139928e+02
  2.952572e+01    2.134127e+02
  2.954850e+01    2.129454e+02
  2.957128e+01    2.123910e+02
  2.959407e+01    2.118573e+02
  2.961685e+01    2.112956e+02
  2.963963e+01    2.107910e+02
  2.966241e+01    2.102785e+02
  2.968520e+01    2.097107e+02
  2.970798e+01    2.091679e+02
  2.973076e+01    2.086078e+02
  2.975354e+01    2.080906e+02
  2.977633e+01    2.075544e+02
  2.979911e+01    2.070156e+02
  2.982189e+01    2.064750e+02
  2.984468e+01    2.059786e+02
  2.986746e+01    2.054409e+02
  2.989024e+01    2.049338e+02
  2.991302e+01    2.043980e+02
  2.993581e+01    2.038741e+02
  2.995859e+01    2.033569e+02
  2.998137e+01    2.028000e+02
  3.000416e+01    2.022724e+02
  3.002694e+01    2.017382e+02
  3.004972e+01    2.012453e+02
  3.007250e+01    2.006882e+02
  3.009529e+01    2.001427e+02
  3.011807e+01    1.996413e+02
  3.014085e+01    1.991692e+02
  3.016363e+01    1.986136e+02
  3.018642e+01    1.981319e+02
  3.020920e+01    1.976548e+02
  3.023198e+01    1.970972e+02
  3.025477e+01    1.965840e+02
  3.027755e+01    1.960019e+02
  3.030033e+01    1.955120e+02
  3.032311e+01    1.949549e+02
  3.034590e+01    1.944691e+02
  3.036868e+01    1.939953e+02
  3.039146e+01    1.935005e+02
  3.041425e+01    1.929723e+02
  3.043703e+01    1.925285e+02
  3.045981e+01    1.919504e+02
  3.048259e+01    1.913889e+02
  3.050538e+01    1.909224e+02
  3.052816e+01    1.904614e+02
  3.055094e+01    1.899844e+02
  3.057373e+01    1.894124e+02
  3.059651e+01    1.889145e+02
  3.061929e+01    1.884731e+02
  3.064207e+01    1.878874e+02
  3.066486e+01    1.873498e+02
  3.068764e+01    1.868792e+02
  3.071042e+01    1.864448e+02
  3.073320e+01    1.859003e+02
  3.075599e+01    1.853491e+02
  3.077877e+01    1.848200e+02
  3.080155e+01    1.844129e+02
  3.082434e+01    1.838935e+02
  3.084712e+01    1.833828e+02
  3.086990e+01    1.829040e+02
  3.089268e+01    1.825180e+02
  3.091547e+01    1.818802e+02
  3.093825e+01    1.813664e+02
  3.096103e+01    1.808824e+02
  3.098382e+01    1.803817e+02
  3.100660e+01    1.799234e+02
  3.102938e+01    1.794777e+02
  3.105216e+01    1.789834e+02
  3.107495e+01    1.785316e+02
  3.109773e+01    1.779821e+02
  3.112051e+01    1.775094e+02
  3.114330e+01    1.770256e+02
  3.116608e+01    1.764870e+02
  3.118886e+01    1.761889e+02
  3.121164e+01    1.757647e+02
  3.123443e+01    1.752685e+02
  3.125721e+01    1.748005e+02
  3.127999e+01    1.741204e+02
  3.130277e+01    1.737616e+02
  3.132556e+01    1.731156e+02
  3.134834e+01    1.728003e+02
  3.137112e+01    1.723707e+02
  3.139391e+01    1.719008e+02
  3.141669e+01    1.714043e+02
  3.143947e+01    1.709473e+02
  3.146225e+01    1.704603e+02
  3.148504e+01    1.700152e+02
  3.150782e+01    1.692269e+02
  3.153060e+01    1.691101e+02
  3.155339e+01    1.688215e+02
  3.157617e+01    1.682737e+02
  3.159895e+01    1.676941e+02
  3.162173e+01    1.672839e+02
  3.164452e+01    1.668279e+02
  3.166730e+01    1.663258e+02
  3.169008e+01    1.657613e+02
  3.171286e+01    1.653882e+02
  3.173565e+01    1.648907e+02
  3.175843e+01    1.643865e+02
  3.178121e+01    1.638048e+02
  3.180400e+01    1.633322e+02
  3.182678e+01    1.629467e+02
  3.184956e+01    1.623790e+02
  3.187234e+01    1.621114e+02
  3.189513e+01    1.616324e+02
  3.191791e+01    1.610731e+02
  3.194069e+01    1.605070e+02
  3.196348e+01    1.601147e+02
  3.198626e+01    1.597582e+02
  3.200904e+01    1.593567e+02
  3.203182e+01    1.587304e+02
  3.205461e+01    1.582756e+02
  3.207739e+01    1.577692e+02
  3.210017e+01    1.573156e+02
  3.212296e+01    1.569613e+02
  3.214574e+01    1.564931e+02
  3.216852e+01    1.558844e+02
  3.219130e+01    1.554152e+02
  3.221409e+01    1.548793e+02
  3.223687e+01    1.544129e+02
  3.225965e+01    1.539951e+02
  3.228243e+01    1.534623e+02
  3.230522e+01    1.530216e+02
  3.232800e+01    1.524132e+02
  3.235078e+01    1.518685e+02
  3.237357e+01    1.513337e+02
  3.239635e+01    1.508950e+02
  3.241913e+01    1.503996e+02
  3.244191e+01    1.498893e+02
  3.246470e+01    1.493261e+02
  3.248748e+01    1.488734e+02
  3.251026e+01    1.483364e+02
  3.253305e+01    1.478279e+02
  3.255583e+01    1.474252e+02
  3.257861e+01    1.467992e+02
  3.260139e+01    1.463700e+02
  3.262418e+01    1.457714e+02
  3.264696e+01    1.451835e+02
  3.266974e+01    1.447189e+02
  3.269253e+01    1.443249e+02
  3.271531e+01    1.437400e+02
  3.273809e+01    1.432328e+02
  3.276087e+01    1.428781e+02
  3.278366e+01    1.423703e+02
  3.280644e+01    1.418141e+02
  3.282922e+01    1.412548e+02
  3.285200e+01    1.407928e+02
  3.287479e+01    1.402325e+02
  3.289757e+01    1.395770e+02
  3.292035e+01    1.390720e+02
  3.294314e+01    1.386197e+02
  3.296592e+01    1.379321e+02
  3.298870e+01    1.376190e+02
  3.301148e+01    1.369496e+02
  3.303427e+01    1.363315e+02
  3.305705e+01    1.359458e+02
  3.307983e+01    1.353394e+02
  3.310262e+01    1.345190e+02
  3.312540e+01    1.341327e+02
  3.314818e+01    1.333970e+02
  3.317096e+01    1.330404e+02
  3.319375e+01    1.323235e+02
  3.321653e+01    1.318269e+02
  3.323931e+01    1.311945e+02
  3.326209e+01    1.305099e+02
  3.328488e+01    1.298958e+02
  3.330766e+01    1.287964e+02
  3.333044e+01    1.280572e+02
  3.335323e+01    1.278813e+02
  3.337601e+01    1.275444e+02
  3.339879e+01    1.273214e+02
  3.342157e+01    1.268016e+02
  3.344436e+01    1.263007e+02
  3.346714e+01    1.259890e+02
  3.348992e+01    1.240788e+02
  3.351271e+01    1.243911e+02
  3.353549e+01    0.000000e+00
  3.355827e+01    0.000000e+00
  3.358105e+01    0.000000e+00
  3.360384e+01    0.000000e+00
  3.362662e+01    0.000000e+00
  3.364940e+01    0.000000e+00
  3.367219e+01    0.000000e+00
  3.369497e+01    0.000000e+00
  3.371775e+01    0.000000e+00
