# == pyFAI calibration ==
# Distance Sample to Detector: 0.21312301984142887 m
# PONI: 2.040e-01, 1.999e-01 m
# Rotations: -0.002682 -0.001196 -0.000007 rad
# 
# == Fit2d calibration ==
# Distance Sample-beamCenter: 213.124 mm
# Center: x=1002.422, y=1018.886 pix
# Tilt: 0.168 deg  TiltPlanRot: -24.030 deg
# 
# Detector Perkin detector	 PixelSize= 2.000e-04, 2.000e-04 m
#    Detector has a mask: False 
#    Detector has a dark current: False 
#    detector has a flat field: False 
# 
# Wavelength: 1.675e-11 m
# Mask applied: provided
# Dark current applied: False
# Flat field applied: False
# Polarization factor: None
# Normalization factor: 1.0
# --> data/chi/example_sample.chi
#        q_A^-1             I 
  2.674548e-02    1.264690e+02
  4.948474e-02    1.260222e+02
  7.222401e-02    1.273835e+02
  9.496327e-02    1.289717e+02
  1.177025e-01    1.302379e+02
  1.404418e-01    1.325475e+02
  1.631811e-01    1.357708e+02
  1.859203e-01    1.404940e+02
  2.086596e-01    1.481193e+02
  2.313989e-01    1.567203e+02
  2.541381e-01    1.754024e+02
  2.768774e-01    2.456750e+02
  2.996166e-01    3.663402e+02
  3.223559e-01    7.008298e+02
  3.450952e-01    1.249324e+03
  3.678344e-01    1.653746e+03
  3.905737e-01    1.101908e+03
  4.133130e-01    8.710711e+02
  4.360522e-01    6.967005e+02
  4.587915e-01    6.343467e+02
  4.815308e-01    6.889103e+02
  5.042700e-01    7.329204e+02
  5.270093e-01    7.714587e+02
  5.497485e-01    8.220167e+02
  5.724878e-01    8.885163e+02
  5.952271e-01    9.798904e+02
  6.179663e-01    1.069530e+03
  6.407056e-01    1.175309e+03
  6.634449e-01    1.296458e+03
  6.861841e-01    1.403242e+03
  7.089234e-01    1.511030e+03
  7.316627e-01    1.597613e+03
  7.544019e-01    1.660941e+03
  7.771412e-01    1.708567e+03
  7.998805e-01    1.751470e+03
  8.226197e-01    1.794784e+03
  8.453590e-01    1.840452e+03
  8.680982e-01    1.887401e+03
  8.908375e-01    1.938747e+03
  9.135768e-01    1.993162e+03
  9.363160e-01    2.049113e+03
  9.590553e-01    2.111351e+03
  9.817946e-01    2.178100e+03
  1.004534e+00    2.246299e+03
  1.027273e+00    2.321251e+03
  1.050012e+00    2.401826e+03
  1.072752e+00    2.485983e+03
  1.095491e+00    2.578513e+03
  1.118230e+00    2.675401e+03
  1.140969e+00    2.777701e+03
  1.163709e+00    2.889666e+03
  1.186448e+00    3.008021e+03
  1.209187e+00    3.131717e+03
  1.231926e+00    3.259043e+03
  1.254666e+00    3.392438e+03
  1.277405e+00    3.532684e+03
  1.300144e+00    3.680562e+03
  1.322884e+00    3.828264e+03
  1.345623e+00    3.983267e+03
  1.368362e+00    4.146389e+03
  1.391101e+00    4.300817e+03
  1.413841e+00    4.457386e+03
  1.436580e+00    4.614030e+03
  1.459319e+00    4.764420e+03
  1.482058e+00    4.911941e+03
  1.504798e+00    5.048924e+03
  1.527537e+00    5.176399e+03
  1.550276e+00    5.294436e+03
  1.573015e+00    5.386792e+03
  1.595755e+00    5.470699e+03
  1.618494e+00    5.544700e+03
  1.641233e+00    5.593677e+03
  1.663972e+00    5.629458e+03
  1.686712e+00    5.650235e+03
  1.709451e+00    5.661833e+03
  1.732190e+00    5.660085e+03
  1.754930e+00    5.643130e+03
  1.777669e+00    5.622440e+03
  1.800408e+00    5.584101e+03
  1.823147e+00    5.523528e+03
  1.845887e+00    5.465940e+03
  1.868626e+00    5.405807e+03
  1.891365e+00    5.349037e+03
  1.914104e+00    5.287323e+03
  1.936844e+00    5.225945e+03
  1.959583e+00    5.174328e+03
  1.982322e+00    5.114925e+03
  2.005061e+00    5.050900e+03
  2.027801e+00    4.993216e+03
  2.050540e+00    4.934245e+03
  2.073279e+00    4.873450e+03
  2.096018e+00    4.816223e+03
  2.118758e+00    4.761085e+03
  2.141497e+00    4.705542e+03
  2.164236e+00    4.631615e+03
  2.186976e+00    4.539952e+03
  2.209715e+00    4.445058e+03
  2.232454e+00    4.346533e+03
  2.255193e+00    4.249043e+03
  2.277933e+00    4.152090e+03
  2.300672e+00    4.056631e+03
  2.323411e+00    3.956730e+03
  2.346150e+00    3.852802e+03
  2.368890e+00    3.754034e+03
  2.391629e+00    3.654281e+03
  2.414368e+00    3.554014e+03
  2.437107e+00    3.462925e+03
  2.459847e+00    3.377300e+03
  2.482586e+00    3.294579e+03
  2.505325e+00    3.199971e+03
  2.528065e+00    3.100941e+03
  2.550804e+00    3.016522e+03
  2.573543e+00    2.938779e+03
  2.596282e+00    2.869131e+03
  2.619022e+00    2.812568e+03
  2.641761e+00    2.762056e+03
  2.664500e+00    2.718088e+03
  2.687239e+00    2.680412e+03
  2.709979e+00    2.652415e+03
  2.732718e+00    2.636930e+03
  2.755457e+00    2.625869e+03
  2.778196e+00    2.622279e+03
  2.800936e+00    2.626678e+03
  2.823675e+00    2.632965e+03
  2.846414e+00    2.640071e+03
  2.869153e+00    2.646523e+03
  2.891893e+00    2.655260e+03
  2.914632e+00    2.662876e+03
  2.937371e+00    2.665805e+03
  2.960111e+00    2.665707e+03
  2.982850e+00    2.663657e+03
  3.005589e+00    2.659127e+03
  3.028328e+00    2.653367e+03
  3.051068e+00    2.645144e+03
  3.073807e+00    2.633732e+03
  3.096546e+00    2.620555e+03
  3.119285e+00    2.607594e+03
  3.142025e+00    2.595690e+03
  3.164764e+00    2.582808e+03
  3.187503e+00    2.567492e+03
  3.210242e+00    2.552564e+03
  3.232982e+00    2.541134e+03
  3.255721e+00    2.526376e+03
  3.278460e+00    2.512463e+03
  3.301199e+00    2.500417e+03
  3.323939e+00    2.488964e+03
  3.346678e+00    2.476732e+03
  3.369417e+00    2.464767e+03
  3.392157e+00    2.456738e+03
  3.414896e+00    2.449455e+03
  3.437635e+00    2.442689e+03
  3.460374e+00    2.442023e+03
  3.483114e+00    2.446392e+03
  3.505853e+00    2.452602e+03
  3.528592e+00    2.454308e+03
  3.551331e+00    2.450281e+03
  3.574071e+00    2.445896e+03
  3.596810e+00    2.444192e+03
  3.619549e+00    2.447719e+03
  3.642288e+00    2.454716e+03
  3.665028e+00    2.463061e+03
  3.687767e+00    2.472746e+03
  3.710506e+00    2.482386e+03
  3.733245e+00    2.492381e+03
  3.755985e+00    2.503737e+03
  3.778724e+00    2.513236e+03
  3.801463e+00    2.524536e+03
  3.824203e+00    2.539513e+03
  3.846942e+00    2.547485e+03
  3.869681e+00    2.554717e+03
  3.892420e+00    2.564994e+03
  3.915160e+00    2.576781e+03
  3.937899e+00    2.587517e+03
  3.960638e+00    2.598426e+03
  3.983377e+00    2.612431e+03
  4.006117e+00    2.624201e+03
  4.028856e+00    2.631837e+03
  4.051595e+00    2.643031e+03
  4.074334e+00    2.655448e+03
  4.097074e+00    2.669170e+03
  4.119813e+00    2.681031e+03
  4.142552e+00    2.688148e+03
  4.165292e+00    2.690604e+03
  4.188031e+00    2.690309e+03
  4.210770e+00    2.691092e+03
  4.233509e+00    2.696889e+03
  4.256249e+00    2.697736e+03
  4.278988e+00    2.687579e+03
  4.301727e+00    2.682764e+03
  4.324466e+00    2.678079e+03
  4.347206e+00    2.671715e+03
  4.369945e+00    2.664007e+03
  4.392684e+00    2.656972e+03
  4.415423e+00    2.655489e+03
  4.438163e+00    2.639696e+03
  4.460902e+00    2.623570e+03
  4.483641e+00    2.611355e+03
  4.506380e+00    2.598535e+03
  4.529120e+00    2.585268e+03
  4.551859e+00    2.570738e+03
  4.574598e+00    2.557834e+03
  4.597338e+00    2.542339e+03
  4.620077e+00    2.521274e+03
  4.642816e+00    2.503086e+03
  4.665555e+00    2.485247e+03
  4.688295e+00    2.466913e+03
  4.711034e+00    2.448940e+03
  4.733773e+00    2.431862e+03
  4.756512e+00    2.415271e+03
  4.779252e+00    2.398328e+03
  4.801991e+00    2.382105e+03
  4.824730e+00    2.371771e+03
  4.847469e+00    2.357488e+03
  4.870209e+00    2.338239e+03
  4.892948e+00    2.325832e+03
  4.915687e+00    2.315203e+03
  4.938426e+00    2.304844e+03
  4.961166e+00    2.294118e+03
  4.983905e+00    2.283821e+03
  5.006644e+00    2.276079e+03
  5.029384e+00    2.257755e+03
  5.052123e+00    2.242696e+03
  5.074862e+00    2.230286e+03
  5.097601e+00    2.218475e+03
  5.120341e+00    2.206392e+03
  5.143080e+00    2.193927e+03
  5.165819e+00    2.183768e+03
  5.188558e+00    2.170727e+03
  5.211298e+00    2.153938e+03
  5.234037e+00    2.141719e+03
  5.256776e+00    2.128968e+03
  5.279515e+00    2.108427e+03
  5.302255e+00    2.091422e+03
  5.324994e+00    2.075356e+03
  5.347733e+00    2.057909e+03
  5.370472e+00    2.038902e+03
  5.393212e+00    2.019651e+03
  5.415951e+00    2.003055e+03
  5.438690e+00    1.979034e+03
  5.461430e+00    1.954487e+03
  5.484169e+00    1.932209e+03
  5.506908e+00    1.910882e+03
  5.529647e+00    1.889894e+03
  5.552387e+00    1.869678e+03
  5.575126e+00    1.851687e+03
  5.597865e+00    1.833972e+03
  5.620604e+00    1.810767e+03
  5.643344e+00    1.790731e+03
  5.666083e+00    1.772279e+03
  5.688822e+00    1.754737e+03
  5.711561e+00    1.738495e+03
  5.734301e+00    1.723897e+03
  5.757040e+00    1.711347e+03
  5.779779e+00    1.697060e+03
  5.802519e+00    1.683942e+03
  5.825258e+00    1.674617e+03
  5.847997e+00    1.662567e+03
  5.870736e+00    1.649317e+03
  5.893476e+00    1.638953e+03
  5.916215e+00    1.629926e+03
  5.938954e+00    1.620679e+03
  5.961693e+00    1.611981e+03
  5.984433e+00    1.605409e+03
  6.007172e+00    1.600348e+03
  6.029911e+00    1.589895e+03
  6.052650e+00    1.582328e+03
  6.075390e+00    1.575619e+03
  6.098129e+00    1.568379e+03
  6.120868e+00    1.561084e+03
  6.143607e+00    1.554061e+03
  6.166347e+00    1.548843e+03
  6.189086e+00    1.541380e+03
  6.211825e+00    1.532978e+03
  6.234565e+00    1.527343e+03
  6.257304e+00    1.520390e+03
  6.280043e+00    1.512062e+03
  6.302782e+00    1.505285e+03
  6.325522e+00    1.499499e+03
  6.348261e+00    1.492885e+03
  6.371000e+00    1.484636e+03
  6.393739e+00    1.478126e+03
  6.416479e+00    1.472714e+03
  6.439218e+00    1.464487e+03
  6.461957e+00    1.456945e+03
  6.484696e+00    1.449804e+03
  6.507436e+00    1.442303e+03
  6.530175e+00    1.434357e+03
  6.552914e+00    1.426848e+03
  6.575653e+00    1.420139e+03
  6.598393e+00    1.412365e+03
  6.621132e+00    1.403755e+03
  6.643871e+00    1.396221e+03
  6.666611e+00    1.389073e+03
  6.689350e+00    1.381989e+03
  6.712089e+00    1.374918e+03
  6.734828e+00    1.368748e+03
  6.757568e+00    1.362349e+03
  6.780307e+00    1.354519e+03
  6.803046e+00    1.347779e+03
  6.825785e+00    1.341407e+03
  6.848525e+00    1.333903e+03
  6.871264e+00    1.326882e+03
  6.894003e+00    1.320434e+03
  6.916742e+00    1.314236e+03
  6.939482e+00    1.307968e+03
  6.962221e+00    1.302156e+03
  6.984960e+00    1.297137e+03
  7.007699e+00    1.291902e+03
  7.030439e+00    1.286569e+03
  7.053178e+00    1.281667e+03
  7.075917e+00    1.276922e+03
  7.098657e+00    1.272452e+03
  7.121396e+00    1.268283e+03
  7.144135e+00    1.264770e+03
  7.166874e+00    1.261267e+03
  7.189614e+00    1.257602e+03
  7.212353e+00    1.254620e+03
  7.235092e+00    1.252196e+03
  7.257831e+00    1.250191e+03
  7.280571e+00    1.248575e+03
  7.303310e+00    1.247289e+03
  7.326049e+00    1.246342e+03
  7.348788e+00    1.245767e+03
  7.371528e+00    1.245450e+03
  7.394267e+00    1.245246e+03
  7.417006e+00    1.244799e+03
  7.439746e+00    1.244833e+03
  7.462485e+00    1.245647e+03
  7.485224e+00    1.246727e+03
  7.507963e+00    1.247781e+03
  7.530703e+00    1.249289e+03
  7.553442e+00    1.251016e+03
  7.576181e+00    1.252635e+03
  7.598920e+00    1.254193e+03
  7.621660e+00    1.256040e+03
  7.644399e+00    1.258066e+03
  7.667138e+00    1.259833e+03
  7.689877e+00    1.261330e+03
  7.712617e+00    1.262822e+03
  7.735356e+00    1.264407e+03
  7.758095e+00    1.265811e+03
  7.780834e+00    1.267509e+03
  7.803574e+00    1.269073e+03
  7.826313e+00    1.270213e+03
  7.849052e+00    1.271462e+03
  7.871792e+00    1.272390e+03
  7.894531e+00    1.272798e+03
  7.917270e+00    1.272358e+03
  7.940009e+00    1.271931e+03
  7.962749e+00    1.271523e+03
  7.985488e+00    1.270359e+03
  8.008227e+00    1.268964e+03
  8.030966e+00    1.267338e+03
  8.053706e+00    1.265474e+03
  8.076445e+00    1.263197e+03
  8.099184e+00    1.260642e+03
  8.121923e+00    1.258371e+03
  8.144663e+00    1.255581e+03
  8.167402e+00    1.252182e+03
  8.190141e+00    1.249319e+03
  8.212880e+00    1.246284e+03
  8.235620e+00    1.242824e+03
  8.258359e+00    1.239655e+03
  8.281098e+00    1.236485e+03
  8.303838e+00    1.233104e+03
  8.326577e+00    1.229247e+03
  8.349316e+00    1.225569e+03
  8.372055e+00    1.222055e+03
  8.394795e+00    1.218676e+03
  8.417534e+00    1.215218e+03
  8.440273e+00    1.211651e+03
  8.463012e+00    1.207844e+03
  8.485752e+00    1.203739e+03
  8.508491e+00    1.199715e+03
  8.531230e+00    1.195813e+03
  8.553969e+00    1.192283e+03
  8.576709e+00    1.188979e+03
  8.599448e+00    1.185632e+03
  8.622187e+00    1.182213e+03
  8.644927e+00    1.178629e+03
  8.667666e+00    1.175312e+03
  8.690405e+00    1.171752e+03
  8.713144e+00    1.168545e+03
  8.735884e+00    1.165388e+03
  8.758623e+00    1.162065e+03
  8.781362e+00    1.159030e+03
  8.804101e+00    1.155824e+03
  8.826841e+00    1.152260e+03
  8.849580e+00    1.148517e+03
  8.872319e+00    1.145018e+03
  8.895058e+00    1.141469e+03
  8.917798e+00    1.137657e+03
  8.940537e+00    1.133748e+03
  8.963276e+00    1.130083e+03
  8.986015e+00    1.126250e+03
  9.008755e+00    1.122618e+03
  9.031494e+00    1.118764e+03
  9.054233e+00    1.114785e+03
  9.076973e+00    1.110846e+03
  9.099712e+00    1.106905e+03
  9.122451e+00    1.102730e+03
  9.145190e+00    1.098347e+03
  9.167930e+00    1.093818e+03
  9.190669e+00    1.089161e+03
  9.213408e+00    1.084492e+03
  9.236147e+00    1.079828e+03
  9.258887e+00    1.075054e+03
  9.281626e+00    1.070833e+03
  9.304365e+00    1.066307e+03
  9.327104e+00    1.061770e+03
  9.349844e+00    1.057332e+03
  9.372583e+00    1.052767e+03
  9.395322e+00    1.048078e+03
  9.418061e+00    1.043439e+03
  9.440801e+00    1.038806e+03
  9.463540e+00    1.034286e+03
  9.486279e+00    1.029783e+03
  9.509019e+00    1.025454e+03
  9.531758e+00    1.020828e+03
  9.554497e+00    1.016203e+03
  9.577236e+00    1.011836e+03
  9.599976e+00    1.007292e+03
  9.622715e+00    1.003052e+03
  9.645454e+00    9.988262e+02
  9.668193e+00    9.948315e+02
  9.690933e+00    9.909370e+02
  9.713672e+00    9.870236e+02
  9.736411e+00    9.832006e+02
  9.759150e+00    9.797822e+02
  9.781890e+00    9.764022e+02
  9.804629e+00    9.727076e+02
  9.827368e+00    9.691176e+02
  9.850107e+00    9.655875e+02
  9.872847e+00    9.624063e+02
  9.895586e+00    9.593016e+02
  9.918325e+00    9.564368e+02
  9.941065e+00    9.539088e+02
  9.963804e+00    9.513494e+02
  9.986543e+00    9.486660e+02
  1.000928e+01    9.461852e+02
  1.003202e+01    9.437369e+02
  1.005476e+01    9.414601e+02
  1.007750e+01    9.391509e+02
  1.010024e+01    9.368639e+02
  1.012298e+01    9.347166e+02
  1.014572e+01    9.324291e+02
  1.016846e+01    9.303293e+02
  1.019120e+01    9.282379e+02
  1.021394e+01    9.260995e+02
  1.023667e+01    9.242579e+02
  1.025941e+01    9.223917e+02
  1.028215e+01    9.206629e+02
  1.030489e+01    9.190562e+02
  1.032763e+01    9.174825e+02
  1.035037e+01    9.159265e+02
  1.037311e+01    9.143349e+02
  1.039585e+01    9.127173e+02
  1.041859e+01    9.110822e+02
  1.044133e+01    9.094310e+02
  1.046407e+01    9.078127e+02
  1.048681e+01    9.062833e+02
  1.050955e+01    9.049534e+02
  1.053229e+01    9.034733e+02
  1.055502e+01    9.020582e+02
  1.057776e+01    9.006564e+02
  1.060050e+01    8.990927e+02
  1.062324e+01    8.976628e+02
  1.064598e+01    8.962500e+02
  1.066872e+01    8.948879e+02
  1.069146e+01    8.934243e+02
  1.071420e+01    8.918666e+02
  1.073694e+01    8.901530e+02
  1.075968e+01    8.885629e+02
  1.078242e+01    8.868818e+02
  1.080516e+01    8.852593e+02
  1.082790e+01    8.836045e+02
  1.085064e+01    8.819568e+02
  1.087337e+01    8.803354e+02
  1.089611e+01    8.788661e+02
  1.091885e+01    8.773654e+02
  1.094159e+01    8.758632e+02
  1.096433e+01    8.741757e+02
  1.098707e+01    8.726016e+02
  1.100981e+01    8.710090e+02
  1.103255e+01    8.693654e+02
  1.105529e+01    8.678867e+02
  1.107803e+01    8.663318e+02
  1.110077e+01    8.646443e+02
  1.112351e+01    8.631454e+02
  1.114625e+01    8.613948e+02
  1.116898e+01    8.595844e+02
  1.119172e+01    8.580884e+02
  1.121446e+01    8.566456e+02
  1.123720e+01    8.550274e+02
  1.125994e+01    8.534163e+02
  1.128268e+01    8.519288e+02
  1.130542e+01    8.504775e+02
  1.132816e+01    8.490084e+02
  1.135090e+01    8.475614e+02
  1.137364e+01    8.462573e+02
  1.139638e+01    8.449306e+02
  1.141912e+01    8.436761e+02
  1.144186e+01    8.425888e+02
  1.146460e+01    8.414936e+02
  1.148733e+01    8.404227e+02
  1.151007e+01    8.393517e+02
  1.153281e+01    8.382224e+02
  1.155555e+01    8.371957e+02
  1.157829e+01    8.362642e+02
  1.160103e+01    8.353251e+02
  1.162377e+01    8.343876e+02
  1.164651e+01    8.334890e+02
  1.166925e+01    8.327480e+02
  1.169199e+01    8.319110e+02
  1.171473e+01    8.314044e+02
  1.173747e+01    8.306823e+02
  1.176021e+01    8.299780e+02
  1.178294e+01    8.293550e+02
  1.180568e+01    8.287878e+02
  1.182842e+01    8.282741e+02
  1.185116e+01    8.277439e+02
  1.187390e+01    8.271751e+02
  1.189664e+01    8.267144e+02
  1.191938e+01    8.264106e+02
  1.194212e+01    8.260604e+02
  1.196486e+01    8.257805e+02
  1.198760e+01    8.254149e+02
  1.201034e+01    8.251546e+02
  1.203308e+01    8.247758e+02
  1.205582e+01    8.243599e+02
  1.207856e+01    8.240114e+02
  1.210129e+01    8.236378e+02
  1.212403e+01    8.232302e+02
  1.214677e+01    8.228619e+02
  1.216951e+01    8.223690e+02
  1.219225e+01    8.220892e+02
  1.221499e+01    8.216768e+02
  1.223773e+01    8.208912e+02
  1.226047e+01    8.201648e+02
  1.228321e+01    8.195430e+02
  1.230595e+01    8.187749e+02
  1.232869e+01    8.180616e+02
  1.235143e+01    8.172712e+02
  1.237417e+01    8.163398e+02
  1.239691e+01    8.154971e+02
  1.241964e+01    8.145050e+02
  1.244238e+01    8.134835e+02
  1.246512e+01    8.124271e+02
  1.248786e+01    8.112623e+02
  1.251060e+01    8.100389e+02
  1.253334e+01    8.086646e+02
  1.255608e+01    8.072690e+02
  1.257882e+01    8.058683e+02
  1.260156e+01    8.042670e+02
  1.262430e+01    8.026952e+02
  1.264704e+01    8.011973e+02
  1.266978e+01    7.996389e+02
  1.269252e+01    7.979118e+02
  1.271525e+01    7.961075e+02
  1.273799e+01    7.942753e+02
  1.276073e+01    7.924783e+02
  1.278347e+01    7.907596e+02
  1.280621e+01    7.889990e+02
  1.282895e+01    7.871979e+02
  1.285169e+01    7.854142e+02
  1.287443e+01    7.834651e+02
  1.289717e+01    7.815889e+02
  1.291991e+01    7.797074e+02
  1.294265e+01    7.778414e+02
  1.296539e+01    7.759723e+02
  1.298813e+01    7.740448e+02
  1.301087e+01    7.720870e+02
  1.303360e+01    7.701052e+02
  1.305634e+01    7.681703e+02
  1.307908e+01    7.661848e+02
  1.310182e+01    7.642238e+02
  1.312456e+01    7.623813e+02
  1.314730e+01    7.605124e+02
  1.317004e+01    7.586364e+02
  1.319278e+01    7.567879e+02
  1.321552e+01    7.549470e+02
  1.323826e+01    7.530810e+02
  1.326100e+01    7.513276e+02
  1.328374e+01    7.495485e+02
  1.330648e+01    7.477700e+02
  1.332921e+01    7.461193e+02
  1.335195e+01    7.443646e+02
  1.337469e+01    7.427129e+02
  1.339743e+01    7.410255e+02
  1.342017e+01    7.393071e+02
  1.344291e+01    7.376993e+02
  1.346565e+01    7.362067e+02
  1.348839e+01    7.347684e+02
  1.351113e+01    7.332081e+02
  1.353387e+01    7.316028e+02
  1.355661e+01    7.299484e+02
  1.357935e+01    7.281542e+02
  1.360209e+01    7.265574e+02
  1.362483e+01    7.250509e+02
  1.364756e+01    7.235043e+02
  1.367030e+01    7.220264e+02
  1.369304e+01    7.205648e+02
  1.371578e+01    7.191210e+02
  1.373852e+01    7.177761e+02
  1.376126e+01    7.164670e+02
  1.378400e+01    7.152177e+02
  1.380674e+01    7.139296e+02
  1.382948e+01    7.126552e+02
  1.385222e+01    7.114532e+02
  1.387496e+01    7.102986e+02
  1.389770e+01    7.090882e+02
  1.392044e+01    7.079696e+02
  1.394317e+01    7.068738e+02
  1.396591e+01    7.057289e+02
  1.398865e+01    7.046035e+02
  1.401139e+01    7.033398e+02
  1.403413e+01    7.022934e+02
  1.405687e+01    7.011848e+02
  1.407961e+01    7.001261e+02
  1.410235e+01    6.991276e+02
  1.412509e+01    6.980935e+02
  1.414783e+01    6.970394e+02
  1.417057e+01    6.960916e+02
  1.419331e+01    6.950620e+02
  1.421605e+01    6.941381e+02
  1.423879e+01    6.931990e+02
  1.426152e+01    6.922449e+02
  1.428426e+01    6.913382e+02
  1.430700e+01    6.903088e+02
  1.432974e+01    6.892890e+02
  1.435248e+01    6.883528e+02
  1.437522e+01    6.874093e+02
  1.439796e+01    6.865071e+02
  1.442070e+01    6.856437e+02
  1.444344e+01    6.847545e+02
  1.446618e+01    6.838477e+02
  1.448892e+01    6.829789e+02
  1.451166e+01    6.821239e+02
  1.453440e+01    6.813056e+02
  1.455714e+01    6.804973e+02
  1.457987e+01    6.797423e+02
  1.460261e+01    6.789866e+02
  1.462535e+01    6.782200e+02
  1.464809e+01    6.773949e+02
  1.467083e+01    6.765090e+02
  1.469357e+01    6.756649e+02
  1.471631e+01    6.748575e+02
  1.473905e+01    6.740501e+02
  1.476179e+01    6.732556e+02
  1.478453e+01    6.724567e+02
  1.480727e+01    6.716230e+02
  1.483001e+01    6.707692e+02
  1.485275e+01    6.699689e+02
  1.487548e+01    6.691546e+02
  1.489822e+01    6.684827e+02
  1.492096e+01    6.677502e+02
  1.494370e+01    6.669208e+02
  1.496644e+01    6.661569e+02
  1.498918e+01    6.653575e+02
  1.501192e+01    6.647117e+02
  1.503466e+01    6.641949e+02
  1.505740e+01    6.632508e+02
  1.508014e+01    6.624558e+02
  1.510288e+01    6.616483e+02
  1.512562e+01    6.607131e+02
  1.514836e+01    6.598453e+02
  1.517110e+01    6.590954e+02
  1.519383e+01    6.582156e+02
  1.521657e+01    6.573801e+02
  1.523931e+01    6.565477e+02
  1.526205e+01    6.557271e+02
  1.528479e+01    6.548835e+02
  1.530753e+01    6.541083e+02
  1.533027e+01    6.532885e+02
  1.535301e+01    6.524389e+02
  1.537575e+01    6.516636e+02
  1.539849e+01    6.508328e+02
  1.542123e+01    6.499631e+02
  1.544397e+01    6.491152e+02
  1.546671e+01    6.482114e+02
  1.548944e+01    6.473007e+02
  1.551218e+01    6.464503e+02
  1.553492e+01    6.456352e+02
  1.555766e+01    6.447853e+02
  1.558040e+01    6.439375e+02
  1.560314e+01    6.430719e+02
  1.562588e+01    6.421797e+02
  1.564862e+01    6.413324e+02
  1.567136e+01    6.404880e+02
  1.569410e+01    6.396967e+02
  1.571684e+01    6.388454e+02
  1.573958e+01    6.380085e+02
  1.576232e+01    6.372422e+02
  1.578506e+01    6.364022e+02
  1.580779e+01    6.356368e+02
  1.583053e+01    6.347796e+02
  1.585327e+01    6.338997e+02
  1.587601e+01    6.330187e+02
  1.589875e+01    6.321654e+02
  1.592149e+01    6.313267e+02
  1.594423e+01    6.305591e+02
  1.596697e+01    6.297733e+02
  1.598971e+01    6.290139e+02
  1.601245e+01    6.282482e+02
  1.603519e+01    6.274987e+02
  1.605793e+01    6.266758e+02
  1.608067e+01    6.259884e+02
  1.610341e+01    6.252836e+02
  1.612614e+01    6.245496e+02
  1.614888e+01    6.238130e+02
  1.617162e+01    6.229949e+02
  1.619436e+01    6.222218e+02
  1.621710e+01    6.215006e+02
  1.623984e+01    6.207769e+02
  1.626258e+01    6.200844e+02
  1.628532e+01    6.193038e+02
  1.630806e+01    6.185555e+02
  1.633080e+01    6.178689e+02
  1.635354e+01    6.171907e+02
  1.637628e+01    6.164210e+02
  1.639902e+01    6.156779e+02
  1.642175e+01    6.149529e+02
  1.644449e+01    6.142894e+02
  1.646723e+01    6.135715e+02
  1.648997e+01    6.127752e+02
  1.651271e+01    6.120247e+02
  1.653545e+01    6.112279e+02
  1.655819e+01    6.104971e+02
  1.658093e+01    6.097370e+02
  1.660367e+01    6.089787e+02
  1.662641e+01    6.082345e+02
  1.664915e+01    6.074694e+02
  1.667189e+01    6.066990e+02
  1.669463e+01    6.059016e+02
  1.671737e+01    6.051044e+02
  1.674010e+01    6.042863e+02
  1.676284e+01    6.035123e+02
  1.678558e+01    6.026241e+02
  1.680832e+01    6.017692e+02
  1.683106e+01    6.008507e+02
  1.685380e+01    5.999928e+02
  1.687654e+01    5.990573e+02
  1.689928e+01    5.980729e+02
  1.692202e+01    5.972633e+02
  1.694476e+01    5.962903e+02
  1.696750e+01    5.953364e+02
  1.699024e+01    5.943660e+02
  1.701298e+01    5.934398e+02
  1.703571e+01    5.924470e+02
  1.705845e+01    5.914745e+02
  1.708119e+01    5.904315e+02
  1.710393e+01    5.893904e+02
  1.712667e+01    5.883085e+02
  1.714941e+01    5.872497e+02
  1.717215e+01    5.862090e+02
  1.719489e+01    5.852100e+02
  1.721763e+01    5.842410e+02
  1.724037e+01    5.831965e+02
  1.726311e+01    5.821105e+02
  1.728585e+01    5.810677e+02
  1.730859e+01    5.800358e+02
  1.733133e+01    5.790187e+02
  1.735406e+01    5.779506e+02
  1.737680e+01    5.768206e+02
  1.739954e+01    5.757516e+02
  1.742228e+01    5.747102e+02
  1.744502e+01    5.736612e+02
  1.746776e+01    5.726100e+02
  1.749050e+01    5.715657e+02
  1.751324e+01    5.704641e+02
  1.753598e+01    5.693876e+02
  1.755872e+01    5.683541e+02
  1.758146e+01    5.673600e+02
  1.760420e+01    5.663323e+02
  1.762694e+01    5.653322e+02
  1.764968e+01    5.643344e+02
  1.767241e+01    5.633403e+02
  1.769515e+01    5.623976e+02
  1.771789e+01    5.613560e+02
  1.774063e+01    5.604506e+02
  1.776337e+01    5.595204e+02
  1.778611e+01    5.586118e+02
  1.780885e+01    5.576372e+02
  1.783159e+01    5.566343e+02
  1.785433e+01    5.556505e+02
  1.787707e+01    5.547776e+02
  1.789981e+01    5.538850e+02
  1.792255e+01    5.529360e+02
  1.794529e+01    5.521000e+02
  1.796802e+01    5.512417e+02
  1.799076e+01    5.503125e+02
  1.801350e+01    5.494704e+02
  1.803624e+01    5.486537e+02
  1.805898e+01    5.477725e+02
  1.808172e+01    5.469760e+02
  1.810446e+01    5.461907e+02
  1.812720e+01    5.453609e+02
  1.814994e+01    5.445519e+02
  1.817268e+01    5.437146e+02
  1.819542e+01    5.429293e+02
  1.821816e+01    5.420878e+02
  1.824090e+01    5.412195e+02
  1.826364e+01    5.403849e+02
  1.828637e+01    5.395775e+02
  1.830911e+01    5.388433e+02
  1.833185e+01    5.381046e+02
  1.835459e+01    5.372969e+02
  1.837733e+01    5.365620e+02
  1.840007e+01    5.357889e+02
  1.842281e+01    5.351304e+02
  1.844555e+01    5.344287e+02
  1.846829e+01    5.337224e+02
  1.849103e+01    5.329556e+02
  1.851377e+01    5.322089e+02
  1.853651e+01    5.314065e+02
  1.855925e+01    5.305810e+02
  1.858198e+01    5.298950e+02
  1.860472e+01    5.292913e+02
  1.862746e+01    5.286334e+02
  1.865020e+01    5.279305e+02
  1.867294e+01    5.272045e+02
  1.869568e+01    5.265198e+02
  1.871842e+01    5.258543e+02
  1.874116e+01    5.251832e+02
  1.876390e+01    5.244933e+02
  1.878664e+01    5.238958e+02
  1.880938e+01    5.231896e+02
  1.883212e+01    5.225682e+02
  1.885486e+01    5.218863e+02
  1.887760e+01    5.212576e+02
  1.890033e+01    5.205493e+02
  1.892307e+01    5.198763e+02
  1.894581e+01    5.192249e+02
  1.896855e+01    5.185109e+02
  1.899129e+01    5.178022e+02
  1.901403e+01    5.171423e+02
  1.903677e+01    5.165327e+02
  1.905951e+01    5.158536e+02
  1.908225e+01    5.152171e+02
  1.910499e+01    5.145383e+02
  1.912773e+01    5.138533e+02
  1.915047e+01    5.131833e+02
  1.917321e+01    5.125660e+02
  1.919594e+01    5.119076e+02
  1.921868e+01    5.112047e+02
  1.924142e+01    5.105440e+02
  1.926416e+01    5.098738e+02
  1.928690e+01    5.091717e+02
  1.930964e+01    5.084163e+02
  1.933238e+01    5.078085e+02
  1.935512e+01    5.071789e+02
  1.937786e+01    5.064834e+02
  1.940060e+01    5.057934e+02
  1.942334e+01    5.050762e+02
  1.944608e+01    5.044582e+02
  1.946882e+01    5.037361e+02
  1.949156e+01    5.030062e+02
  1.951429e+01    5.022866e+02
  1.953703e+01    5.016504e+02
  1.955977e+01    5.009732e+02
  1.958251e+01    5.003708e+02
  1.960525e+01    4.997428e+02
  1.962799e+01    4.990143e+02
  1.965073e+01    4.983299e+02
  1.967347e+01    4.976314e+02
  1.969621e+01    4.969710e+02
  1.971895e+01    4.962537e+02
  1.974169e+01    4.955106e+02
  1.976443e+01    4.947912e+02
  1.978717e+01    4.941229e+02
  1.980991e+01    4.933506e+02
  1.983264e+01    4.926606e+02
  1.985538e+01    4.919623e+02
  1.987812e+01    4.912152e+02
  1.990086e+01    4.904500e+02
  1.992360e+01    4.897464e+02
  1.994634e+01    4.889943e+02
  1.996908e+01    4.882258e+02
  1.999182e+01    4.874812e+02
  2.001456e+01    4.868026e+02
  2.003730e+01    4.860718e+02
  2.006004e+01    4.853074e+02
  2.008278e+01    4.845329e+02
  2.010552e+01    4.837508e+02
  2.012825e+01    4.829801e+02
  2.015099e+01    4.822307e+02
  2.017373e+01    4.814475e+02
  2.019647e+01    4.806301e+02
  2.021921e+01    4.798418e+02
  2.024195e+01    4.791112e+02
  2.026469e+01    4.783125e+02
  2.028743e+01    4.774659e+02
  2.031017e+01    4.766729e+02
  2.033291e+01    4.758420e+02
  2.035565e+01    4.750349e+02
  2.037839e+01    4.742750e+02
  2.040113e+01    4.734409e+02
  2.042387e+01    4.726683e+02
  2.044660e+01    4.719681e+02
  2.046934e+01    4.712119e+02
  2.049208e+01    4.704436e+02
  2.051482e+01    4.696812e+02
  2.053756e+01    4.689164e+02
  2.056030e+01    4.682033e+02
  2.058304e+01    4.674943e+02
  2.060578e+01    4.667636e+02
  2.062852e+01    4.660153e+02
  2.065126e+01    4.652704e+02
  2.067400e+01    4.645611e+02
  2.069674e+01    4.638205e+02
  2.071948e+01    4.631233e+02
  2.074221e+01    4.623292e+02
  2.076495e+01    4.615295e+02
  2.078769e+01    4.608348e+02
  2.081043e+01    4.600483e+02
  2.083317e+01    4.592814e+02
  2.085591e+01    4.585528e+02
  2.087865e+01    4.577963e+02
  2.090139e+01    4.570755e+02
  2.092413e+01    4.563534e+02
  2.094687e+01    4.555613e+02
  2.096961e+01    4.547908e+02
  2.099235e+01    4.540461e+02
  2.101509e+01    4.533074e+02
  2.103783e+01    4.525596e+02
  2.106056e+01    4.518211e+02
  2.108330e+01    4.510365e+02
  2.110604e+01    4.502704e+02
  2.112878e+01    4.495085e+02
  2.115152e+01    4.487988e+02
  2.117426e+01    4.480220e+02
  2.119700e+01    4.472263e+02
  2.121974e+01    4.465010e+02
  2.124248e+01    4.457762e+02
  2.126522e+01    4.450163e+02
  2.128796e+01    4.442997e+02
  2.131070e+01    4.435562e+02
  2.133344e+01    4.428391e+02
  2.135618e+01    4.420479e+02
  2.137891e+01    4.412685e+02
  2.140165e+01    4.405240e+02
  2.142439e+01    4.398154e+02
  2.144713e+01    4.393813e+02
  2.146987e+01    4.386476e+02
  2.149261e+01    4.378186e+02
  2.151535e+01    4.370127e+02
  2.153809e+01    4.362384e+02
  2.156083e+01    4.354633e+02
  2.158357e+01    4.347042e+02
  2.160631e+01    4.339112e+02
  2.162905e+01    4.331345e+02
  2.165179e+01    4.323847e+02
  2.167452e+01    4.316353e+02
  2.169726e+01    4.309315e+02
  2.172000e+01    4.301810e+02
  2.174274e+01    4.293886e+02
  2.176548e+01    4.286669e+02
  2.178822e+01    4.279422e+02
  2.181096e+01    4.272303e+02
  2.183370e+01    4.264538e+02
  2.185644e+01    4.257165e+02
  2.187918e+01    4.250145e+02
  2.190192e+01    4.243249e+02
  2.192466e+01    4.236182e+02
  2.194740e+01    4.228889e+02
  2.197014e+01    4.221690e+02
  2.199287e+01    4.214383e+02
  2.201561e+01    4.206803e+02
  2.203835e+01    4.199774e+02
  2.206109e+01    4.192961e+02
  2.208383e+01    4.185825e+02
  2.210657e+01    4.178221e+02
  2.212931e+01    4.171333e+02
  2.215205e+01    4.163661e+02
  2.217479e+01    4.156694e+02
  2.219753e+01    4.149674e+02
  2.222027e+01    4.142972e+02
  2.224301e+01    4.136351e+02
  2.226575e+01    4.129258e+02
  2.228848e+01    4.121375e+02
  2.231122e+01    4.114578e+02
  2.233396e+01    4.107886e+02
  2.235670e+01    4.100311e+02
  2.237944e+01    4.093046e+02
  2.240218e+01    4.086562e+02
  2.242492e+01    4.079944e+02
  2.244766e+01    4.073069e+02
  2.247040e+01    4.065884e+02
  2.249314e+01    4.059438e+02
  2.251588e+01    4.052225e+02
  2.253862e+01    4.044963e+02
  2.256136e+01    4.038271e+02
  2.258410e+01    4.031730e+02
  2.260683e+01    4.025310e+02
  2.262957e+01    4.018635e+02
  2.265231e+01    4.012064e+02
  2.267505e+01    4.005334e+02
  2.269779e+01    3.998713e+02
  2.272053e+01    3.992454e+02
  2.274327e+01    3.986008e+02
  2.276601e+01    3.979433e+02
  2.278875e+01    3.972671e+02
  2.281149e+01    3.965763e+02
  2.283423e+01    3.959263e+02
  2.285697e+01    3.952834e+02
  2.287971e+01    3.946349e+02
  2.290244e+01    3.939933e+02
  2.292518e+01    3.933171e+02
  2.294792e+01    3.926475e+02
  2.297066e+01    3.920065e+02
  2.299340e+01    3.913465e+02
  2.301614e+01    3.906982e+02
  2.303888e+01    3.900656e+02
  2.306162e+01    3.893911e+02
  2.308436e+01    3.887429e+02
  2.310710e+01    3.880421e+02
  2.312984e+01    3.873775e+02
  2.315258e+01    3.867296e+02
  2.317532e+01    3.860988e+02
  2.319806e+01    3.853946e+02
  2.322079e+01    3.847325e+02
  2.324353e+01    3.841065e+02
  2.326627e+01    3.834531e+02
  2.328901e+01    3.827754e+02
  2.331175e+01    3.821436e+02
  2.333449e+01    3.814873e+02
  2.335723e+01    3.808366e+02
  2.337997e+01    3.802067e+02
  2.340271e+01    3.795887e+02
  2.342545e+01    3.789441e+02
  2.344819e+01    3.782575e+02
  2.347093e+01    3.775791e+02
  2.349367e+01    3.769217e+02
  2.351641e+01    3.762887e+02
  2.353914e+01    3.756496e+02
  2.356188e+01    3.749964e+02
  2.358462e+01    3.743745e+02
  2.360736e+01    3.736591e+02
  2.363010e+01    3.730211e+02
  2.365284e+01    3.724474e+02
  2.367558e+01    3.721436e+02
  2.369832e+01    3.713275e+02
  2.372106e+01    3.706112e+02
  2.374380e+01    3.699107e+02
  2.376654e+01    3.691900e+02
  2.378928e+01    3.685649e+02
  2.381202e+01    3.678464e+02
  2.383475e+01    3.671545e+02
  2.385749e+01    3.664959e+02
  2.388023e+01    3.657920e+02
  2.390297e+01    3.651306e+02
  2.392571e+01    3.644251e+02
  2.394845e+01    3.637559e+02
  2.397119e+01    3.630785e+02
  2.399393e+01    3.624160e+02
  2.401667e+01    3.617563e+02
  2.403941e+01    3.611263e+02
  2.406215e+01    3.604963e+02
  2.408489e+01    3.597995e+02
  2.410763e+01    3.591363e+02
  2.413037e+01    3.585006e+02
  2.415310e+01    3.578260e+02
  2.417584e+01    3.571815e+02
  2.419858e+01    3.565331e+02
  2.422132e+01    3.558307e+02
  2.424406e+01    3.551684e+02
  2.426680e+01    3.545017e+02
  2.428954e+01    3.538229e+02
  2.431228e+01    3.531355e+02
  2.433502e+01    3.524712e+02
  2.435776e+01    3.518282e+02
  2.438050e+01    3.511426e+02
  2.440324e+01    3.504603e+02
  2.442598e+01    3.497943e+02
  2.444871e+01    3.491109e+02
  2.447145e+01    3.484376e+02
  2.449419e+01    3.477997e+02
  2.451693e+01    3.471210e+02
  2.453967e+01    3.464367e+02
  2.456241e+01    3.457721e+02
  2.458515e+01    3.451107e+02
  2.460789e+01    3.444327e+02
  2.463063e+01    3.437214e+02
  2.465337e+01    3.430794e+02
  2.467611e+01    3.424081e+02
  2.469885e+01    3.417162e+02
  2.472159e+01    3.410620e+02
  2.474433e+01    3.404332e+02
  2.476706e+01    3.397693e+02
  2.478980e+01    3.390971e+02
  2.481254e+01    3.384387e+02
  2.483528e+01    3.377458e+02
  2.485802e+01    3.370673e+02
  2.488076e+01    3.363453e+02
  2.490350e+01    3.356844e+02
  2.492624e+01    3.350128e+02
  2.494898e+01    3.343958e+02
  2.497172e+01    3.336990e+02
  2.499446e+01    3.329507e+02
  2.501720e+01    3.323141e+02
  2.503994e+01    3.316598e+02
  2.506268e+01    3.309738e+02
  2.508541e+01    3.303298e+02
  2.510815e+01    3.296897e+02
  2.513089e+01    3.290297e+02
  2.515363e+01    3.283410e+02
  2.517637e+01    3.276118e+02
  2.519911e+01    3.269952e+02
  2.522185e+01    3.263072e+02
  2.524459e+01    3.256333e+02
  2.526733e+01    3.249228e+02
  2.529007e+01    3.243009e+02
  2.531281e+01    3.236782e+02
  2.533555e+01    3.230823e+02
  2.535829e+01    3.224238e+02
  2.538102e+01    3.218126e+02
  2.540376e+01    3.211999e+02
  2.542650e+01    3.205541e+02
  2.544924e+01    3.199361e+02
  2.547198e+01    3.192856e+02
  2.549472e+01    3.186206e+02
  2.551746e+01    3.180182e+02
  2.554020e+01    3.173561e+02
  2.556294e+01    3.166811e+02
  2.558568e+01    3.160511e+02
  2.560842e+01    3.154309e+02
  2.563116e+01    3.147944e+02
  2.565390e+01    3.141501e+02
  2.567664e+01    3.135162e+02
  2.569937e+01    3.128849e+02
  2.572211e+01    3.122444e+02
  2.574485e+01    3.116419e+02
  2.576759e+01    3.110546e+02
  2.579033e+01    3.104079e+02
  2.581307e+01    3.097717e+02
  2.583581e+01    3.091461e+02
  2.585855e+01    3.085222e+02
  2.588129e+01    3.078710e+02
  2.590403e+01    3.072498e+02
  2.592677e+01    3.066171e+02
  2.594951e+01    3.059977e+02
  2.597225e+01    3.053479e+02
  2.599498e+01    3.047495e+02
  2.601772e+01    3.041472e+02
  2.604046e+01    3.035451e+02
  2.606320e+01    3.029362e+02
  2.608594e+01    3.022892e+02
  2.610868e+01    3.016916e+02
  2.613142e+01    3.010909e+02
  2.615416e+01    3.004547e+02
  2.617690e+01    2.998072e+02
  2.619964e+01    2.991609e+02
  2.622238e+01    2.985409e+02
  2.624512e+01    2.979580e+02
  2.626786e+01    2.973635e+02
  2.629060e+01    2.967659e+02
  2.631333e+01    2.961559e+02
  2.633607e+01    2.955175e+02
  2.635881e+01    2.948822e+02
  2.638155e+01    2.942763e+02
  2.640429e+01    2.936547e+02
  2.642703e+01    2.930151e+02
  2.644977e+01    2.924037e+02
  2.647251e+01    2.917972e+02
  2.649525e+01    2.911695e+02
  2.651799e+01    2.905706e+02
  2.654073e+01    2.899344e+02
  2.656347e+01    2.893403e+02
  2.658621e+01    2.887331e+02
  2.660894e+01    2.881251e+02
  2.663168e+01    2.875400e+02
  2.665442e+01    2.868974e+02
  2.667716e+01    2.862480e+02
  2.669990e+01    2.856446e+02
  2.672264e+01    2.850453e+02
  2.674538e+01    2.844507e+02
  2.676812e+01    2.838279e+02
  2.679086e+01    2.832191e+02
  2.681360e+01    2.826241e+02
  2.683634e+01    2.820066e+02
  2.685908e+01    2.813668e+02
  2.688182e+01    2.807782e+02
  2.690456e+01    2.801537e+02
  2.692729e+01    2.795667e+02
  2.695003e+01    2.789504e+02
  2.697277e+01    2.783149e+02
  2.699551e+01    2.777187e+02
  2.701825e+01    2.770988e+02
  2.704099e+01    2.764997e+02
  2.706373e+01    2.758709e+02
  2.708647e+01    2.752106e+02
  2.710921e+01    2.745965e+02
  2.713195e+01    2.739533e+02
  2.715469e+01    2.734195e+02
  2.717743e+01    2.737239e+02
  2.720017e+01    2.737329e+02
  2.722291e+01    2.735455e+02
  2.724564e+01    2.732579e+02
  2.726838e+01    2.729227e+02
  2.729112e+01    2.725469e+02
  2.731386e+01    2.721743e+02
  2.733660e+01    2.717445e+02
  2.735934e+01    2.713284e+02
  2.738208e+01    2.708968e+02
  2.740482e+01    2.700677e+02
  2.742756e+01    2.692504e+02
  2.745030e+01    2.685299e+02
  2.747304e+01    2.678775e+02
  2.749578e+01    2.672069e+02
  2.751852e+01    2.665282e+02
  2.754125e+01    2.658752e+02
  2.756399e+01    2.652487e+02
  2.758673e+01    2.646385e+02
  2.760947e+01    2.638554e+02
  2.763221e+01    2.624045e+02
  2.765495e+01    2.612390e+02
  2.767769e+01    2.602078e+02
  2.770043e+01    2.592026e+02
  2.772317e+01    2.581858e+02
  2.774591e+01    2.572255e+02
  2.776865e+01    2.563227e+02
  2.779139e+01    2.554847e+02
  2.781413e+01    2.545634e+02
  2.783687e+01    2.543302e+02
  2.785960e+01    2.544617e+02
  2.788234e+01    2.541982e+02
  2.790508e+01    2.538730e+02
  2.792782e+01    2.534777e+02
  2.795056e+01    2.529664e+02
  2.797330e+01    2.525055e+02
  2.799604e+01    2.520410e+02
  2.801878e+01    2.515541e+02
  2.804152e+01    2.510257e+02
  2.806426e+01    2.505355e+02
  2.808700e+01    2.499978e+02
  2.810974e+01    2.494946e+02
  2.813248e+01    2.489751e+02
  2.815521e+01    2.484504e+02
  2.817795e+01    2.479062e+02
  2.820069e+01    2.473178e+02
  2.822343e+01    2.467731e+02
  2.824617e+01    2.462347e+02
  2.826891e+01    2.456891e+02
  2.829165e+01    2.451821e+02
  2.831439e+01    2.446423e+02
  2.833713e+01    2.440497e+02
  2.835987e+01    2.435083e+02
  2.838261e+01    2.429345e+02
  2.840535e+01    2.423748e+02
  2.842809e+01    2.418238e+02
  2.845083e+01    2.412709e+02
  2.847356e+01    2.406882e+02
  2.849630e+01    2.401463e+02
  2.851904e+01    2.395934e+02
  2.854178e+01    2.390554e+02
  2.856452e+01    2.385092e+02
  2.858726e+01    2.379134e+02
  2.861000e+01    2.373966e+02
  2.863274e+01    2.368152e+02
  2.865548e+01    2.362676e+02
  2.867822e+01    2.357111e+02
  2.870096e+01    2.351398e+02
  2.872370e+01    2.345688e+02
  2.874644e+01    2.339831e+02
  2.876918e+01    2.334829e+02
  2.879191e+01    2.329158e+02
  2.881465e+01    2.323590e+02
  2.883739e+01    2.317678e+02
  2.886013e+01    2.312065e+02
  2.888287e+01    2.306390e+02
  2.890561e+01    2.300215e+02
  2.892835e+01    2.295408e+02
  2.895109e+01    2.289813e+02
  2.897383e+01    2.284023e+02
  2.899657e+01    2.278861e+02
  2.901931e+01    2.273205e+02
  2.904205e+01    2.267636e+02
  2.906479e+01    2.261416e+02
  2.908752e+01    2.256427e+02
  2.911026e+01    2.251095e+02
  2.913300e+01    2.245213e+02
  2.915574e+01    2.239437e+02
  2.917848e+01    2.233767e+02
  2.920122e+01    2.228097e+02
  2.922396e+01    2.222521e+02
  2.924670e+01    2.216830e+02
  2.926944e+01    2.211574e+02
  2.929218e+01    2.206019e+02
  2.931492e+01    2.200665e+02
  2.933766e+01    2.195067e+02
  2.936040e+01    2.189711e+02
  2.938314e+01    2.184155e+02
  2.940587e+01    2.178627e+02
  2.942861e+01    2.172921e+02
  2.945135e+01    2.167739e+02
  2.947409e+01    2.162054e+02
  2.949683e+01    2.156471e+02
  2.951957e+01    2.151118e+02
  2.954231e+01    2.145925e+02
  2.956505e+01    2.140625e+02
  2.958779e+01    2.135155e+02
  2.961053e+01    2.129571e+02
  2.963327e+01    2.124644e+02
  2.965601e+01    2.119112e+02
  2.967875e+01    2.113714e+02
  2.970148e+01    2.108492e+02
  2.972422e+01    2.103222e+02
  2.974696e+01    2.097360e+02
  2.976970e+01    2.092203e+02
  2.979244e+01    2.087103e+02
  2.981518e+01    2.081615e+02
  2.983792e+01    2.076374e+02
  2.986066e+01    2.071019e+02
  2.988340e+01    2.065345e+02
  2.990614e+01    2.060011e+02
  2.992888e+01    2.055079e+02
  2.995162e+01    2.049156e+02
  2.997436e+01    2.043979e+02
  2.999710e+01    2.039140e+02
  3.001983e+01    2.033510e+02
  3.004257e+01    2.028349e+02
  3.006531e+01    2.023347e+02
  3.008805e+01    2.017783e+02
  3.011079e+01    2.012153e+02
  3.013353e+01    2.007179e+02
  3.015627e+01    2.001989e+02
  3.017901e+01    1.996743e+02
  3.020175e+01    1.991258e+02
  3.022449e+01    1.986290e+02
  3.024723e+01    1.980897e+02
  3.026997e+01    1.975750e+02
  3.029271e+01    1.970387e+02
  3.031545e+01    1.964958e+02
  3.033818e+01    1.960660e+02
  3.036092e+01    1.955143e+02
  3.038366e+01    1.950169e+02
  3.040640e+01    1.945217e+02
  3.042914e+01    1.940534e+02
  3.045188e+01    1.935906e+02
  3.047462e+01    1.930114e+02
  3.049736e+01    1.925078e+02
  3.052010e+01    1.919798e+02
  3.054284e+01    1.914439e+02
  3.056558e+01    1.910199e+02
  3.058832e+01    1.904395e+02
  3.061106e+01    1.899384e+02
  3.063379e+01    1.893588e+02
  3.065653e+01    1.888788e+02
  3.067927e+01    1.882720e+02
  3.070201e+01    1.877850e+02
  3.072475e+01    1.872849e+02
  3.074749e+01    1.867927e+02
  3.077023e+01    1.863318e+02
  3.079297e+01    1.858155e+02
  3.081571e+01    1.853151e+02
  3.083845e+01    1.847195e+02
  3.086119e+01    1.843104e+02
  3.088393e+01    1.837591e+02
  3.090667e+01    1.832555e+02
  3.092941e+01    1.827513e+02
  3.095214e+01    1.823264e+02
  3.097488e+01    1.818394e+02
  3.099762e+01    1.813487e+02
  3.102036e+01    1.808432e+02
  3.104310e+01    1.803002e+02
  3.106584e+01    1.797542e+02
  3.108858e+01    1.793949e+02
  3.111132e+01    1.788967e+02
  3.113406e+01    1.784290e+02
  3.115680e+01    1.778250e+02
  3.117954e+01    1.773754e+02
  3.120228e+01    1.768735e+02
  3.122502e+01    1.764859e+02
  3.124775e+01    1.759057e+02
  3.127049e+01    1.754190e+02
  3.129323e+01    1.749632e+02
  3.131597e+01    1.744814e+02
  3.133871e+01    1.739383e+02
  3.136145e+01    1.735341e+02
  3.138419e+01    1.731038e+02
  3.140693e+01    1.725815e+02
  3.142967e+01    1.720848e+02
  3.145241e+01    1.717125e+02
  3.147515e+01    1.712764e+02
  3.149789e+01    1.708135e+02
  3.152063e+01    1.702507e+02
  3.154337e+01    1.698316e+02
  3.156610e+01    1.692061e+02
  3.158884e+01    1.688236e+02
  3.161158e+01    1.684567e+02
  3.163432e+01    1.679244e+02
  3.165706e+01    1.673846e+02
  3.167980e+01    1.669175e+02
  3.170254e+01    1.664133e+02
  3.172528e+01    1.659594e+02
  3.174802e+01    1.655151e+02
  3.177076e+01    1.649895e+02
  3.179350e+01    1.645967e+02
  3.181624e+01    1.639322e+02
  3.183898e+01    1.635766e+02
  3.186171e+01    1.629696e+02
  3.188445e+01    1.626646e+02
  3.190719e+01    1.621435e+02
  3.192993e+01    1.616725e+02
  3.195267e+01    1.612264e+02
  3.197541e+01    1.606432e+02
  3.199815e+01    1.602765e+02
  3.202089e+01    1.598002e+02
  3.204363e+01    1.592410e+02
  3.206637e+01    1.587141e+02
  3.208911e+01    1.582101e+02
  3.211185e+01    1.578194e+02
  3.213459e+01    1.573594e+02
  3.215733e+01    1.567896e+02
  3.218006e+01    1.562690e+02
  3.220280e+01    1.559889e+02
  3.222554e+01    1.552620e+02
  3.224828e+01    1.547641e+02
  3.227102e+01    1.543801e+02
  3.229376e+01    1.538370e+02
  3.231650e+01    1.534014e+02
  3.233924e+01    1.529361e+02
  3.236198e+01    1.523531e+02
  3.238472e+01    1.518698e+02
  3.240746e+01    1.514506e+02
  3.243020e+01    1.509414e+02
  3.245294e+01    1.503598e+02
  3.247568e+01    1.497730e+02
  3.249841e+01    1.493179e+02
  3.252115e+01    1.487998e+02
  3.254389e+01    1.482140e+02
  3.256663e+01    1.477022e+02
  3.258937e+01    1.471222e+02
  3.261211e+01    1.465933e+02
  3.263485e+01    1.461744e+02
  3.265759e+01    1.456060e+02
  3.268033e+01    1.453020e+02
  3.270307e+01    1.445901e+02
  3.272581e+01    1.440370e+02
  3.274855e+01    1.435237e+02
  3.277129e+01    1.429154e+02
  3.279402e+01    1.423746e+02
  3.281676e+01    1.419303e+02
  3.283950e+01    1.414412e+02
  3.286224e+01    1.408379e+02
  3.288498e+01    1.404270e+02
  3.290772e+01    1.400565e+02
  3.293046e+01    1.395691e+02
  3.295320e+01    1.390262e+02
  3.297594e+01    1.386485e+02
  3.299868e+01    1.380584e+02
  3.302142e+01    1.377242e+02
  3.304416e+01    1.373404e+02
  3.306690e+01    1.367566e+02
  3.308964e+01    1.363806e+02
  3.311237e+01    1.358644e+02
  3.313511e+01    1.356071e+02
  3.315785e+01    1.351989e+02
  3.318059e+01    1.348382e+02
  3.320333e+01    1.341673e+02
  3.322607e+01    1.338892e+02
  3.324881e+01    1.334703e+02
  3.327155e+01    1.330366e+02
  3.329429e+01    1.324148e+02
  3.331703e+01    1.321549e+02
  3.333977e+01    1.316258e+02
  3.336251e+01    1.313968e+02
  3.338525e+01    1.309356e+02
  3.340798e+01    1.309551e+02
  3.343072e+01    1.311760e+02
  3.345346e+01    1.304145e+02
  3.347620e+01    1.298035e+02
  3.349894e+01    1.286798e+02
  3.352168e+01    1.280808e+02
  3.354442e+01    1.274949e+02
  3.356716e+01    1.256671e+02
  3.358990e+01    0.000000e+00
  3.361264e+01    0.000000e+00
  3.363538e+01    0.000000e+00
  3.365812e+01    0.000000e+00
