# == pyFAI calibration ==
# Distance Sample to Detector: 0.21312301984142887 m
# PONI: 2.040e-01, 1.999e-01 m
# Rotations: -0.002682 -0.001196 -0.000007 rad
# 
# == Fit2d calibration ==
# Distance Sample-beamCenter: 213.124 mm
# Center: x=1002.422, y=1018.886 pix
# Tilt: 0.168 deg  TiltPlanRot: -24.030 deg
# 
# Detector Perkin detector	 PixelSize= 2.000e-04, 2.000e-04 m
#    Detector has a mask: False 
#    Detector has a dark current: False 
#    detector has a flat field: False 
# 
# Wavelength: 1.675e-11 m
# Mask applied: provided
# Dark current applied: False
# Flat field applied: False
# Polarization factor: None
# Normalization factor: 1.0
# --> data/chi/substrate.chi
#        q_A^-1             I 
  2.674548e-02    1.262376e+02
  4.948474e-02    1.263044e+02
  7.222401e-02    1.269119e+02
  9.496327e-02    1.282546e+02
  1.177025e-01    1.301728e+02
  1.404418e-01    1.323386e+02
  1.631811e-01    1.358104e+02
  1.859203e-01    1.399620e+02
  2.086596e-01    1.473902e+02
  2.313989e-01    1.553672e+02
  2.541381e-01    1.730351e+02
  2.768774e-01    2.387502e+02
  2.996166e-01    3.510780e+02
  3.223559e-01    6.662183e+02
  3.450952e-01    1.209633e+03
  3.678344e-01    1.572987e+03
  3.905737e-01    1.096330e+03
  4.133130e-01    8.239926e+02
  4.360522e-01    6.764905e+02
  4.587915e-01    6.292114e+02
  4.815308e-01    6.840735e+02
  5.042700e-01    7.236967e+02
  5.270093e-01    7.621273e+02
  5.497485e-01    8.111577e+02
  5.724878e-01    8.757942e+02
  5.952271e-01    9.664142e+02
  6.179663e-01    1.057385e+03
  6.407056e-01    1.164544e+03
  6.634449e-01    1.288042e+03
  6.861841e-01    1.396736e+03
  7.089234e-01    1.505043e+03
  7.316627e-01    1.589519e+03
  7.544019e-01    1.649946e+03
  7.771412e-01    1.696395e+03
  7.998805e-01    1.739152e+03
  8.226197e-01    1.782295e+03
  8.453590e-01    1.828633e+03
  8.680982e-01    1.876207e+03
  8.908375e-01    1.927449e+03
  9.135768e-01    1.981853e+03
  9.363160e-01    2.038132e+03
  9.590553e-01    2.100528e+03
  9.817946e-01    2.167546e+03
  1.004534e+00    2.235770e+03
  1.027273e+00    2.310791e+03
  1.050012e+00    2.391863e+03
  1.072752e+00    2.476678e+03
  1.095491e+00    2.569187e+03
  1.118230e+00    2.666301e+03
  1.140969e+00    2.768891e+03
  1.163709e+00    2.880804e+03
  1.186448e+00    2.998563e+03
  1.209187e+00    3.121920e+03
  1.231926e+00    3.248654e+03
  1.254666e+00    3.381747e+03
  1.277405e+00    3.521995e+03
  1.300144e+00    3.670126e+03
  1.322884e+00    3.817975e+03
  1.345623e+00    3.972575e+03
  1.368362e+00    4.135033e+03
  1.391101e+00    4.289187e+03
  1.413841e+00    4.445887e+03
  1.436580e+00    4.602762e+03
  1.459319e+00    4.753954e+03
  1.482058e+00    4.901788e+03
  1.504798e+00    5.038392e+03
  1.527537e+00    5.165593e+03
  1.550276e+00    5.283941e+03
  1.573015e+00    5.377112e+03
  1.595755e+00    5.460482e+03
  1.618494e+00    5.533529e+03
  1.641233e+00    5.581570e+03
  1.663972e+00    5.615706e+03
  1.686712e+00    5.634669e+03
  1.709451e+00    5.642697e+03
  1.732190e+00    5.634723e+03
  1.754930e+00    5.610663e+03
  1.777669e+00    5.586572e+03
  1.800408e+00    5.550336e+03
  1.823147e+00    5.496982e+03
  1.845887e+00    5.447181e+03
  1.868626e+00    5.393267e+03
  1.891365e+00    5.340716e+03
  1.914104e+00    5.281930e+03
  1.936844e+00    5.222496e+03
  1.959583e+00    5.172017e+03
  1.982322e+00    5.113408e+03
  2.005061e+00    5.050563e+03
  2.027801e+00    4.993521e+03
  2.050540e+00    4.934531e+03
  2.073279e+00    4.873466e+03
  2.096018e+00    4.815580e+03
  2.118758e+00    4.759485e+03
  2.141497e+00    4.704605e+03
  2.164236e+00    4.634950e+03
  2.186976e+00    4.547254e+03
  2.209715e+00    4.452282e+03
  2.232454e+00    4.351667e+03
  2.255193e+00    4.252660e+03
  2.277933e+00    4.155147e+03
  2.300672e+00    4.059450e+03
  2.323411e+00    3.959493e+03
  2.346150e+00    3.855794e+03
  2.368890e+00    3.756977e+03
  2.391629e+00    3.657094e+03
  2.414368e+00    3.556178e+03
  2.437107e+00    3.463687e+03
  2.459847e+00    3.377262e+03
  2.482586e+00    3.296629e+03
  2.505325e+00    3.205395e+03
  2.528065e+00    3.106872e+03
  2.550804e+00    3.019931e+03
  2.573543e+00    2.939529e+03
  2.596282e+00    2.867487e+03
  2.619022e+00    2.808972e+03
  2.641761e+00    2.757540e+03
  2.664500e+00    2.712923e+03
  2.687239e+00    2.677980e+03
  2.709979e+00    2.651888e+03
  2.732718e+00    2.636891e+03
  2.755457e+00    2.626329e+03
  2.778196e+00    2.623490e+03
  2.800936e+00    2.628152e+03
  2.823675e+00    2.634549e+03
  2.846414e+00    2.641889e+03
  2.869153e+00    2.648046e+03
  2.891893e+00    2.657151e+03
  2.914632e+00    2.665611e+03
  2.937371e+00    2.669263e+03
  2.960111e+00    2.669403e+03
  2.982850e+00    2.667744e+03
  3.005589e+00    2.664082e+03
  3.028328e+00    2.659177e+03
  3.051068e+00    2.650941e+03
  3.073807e+00    2.638686e+03
  3.096546e+00    2.624261e+03
  3.119285e+00    2.610114e+03
  3.142025e+00    2.597466e+03
  3.164764e+00    2.584783e+03
  3.187503e+00    2.569686e+03
  3.210242e+00    2.553988e+03
  3.232982e+00    2.540803e+03
  3.255721e+00    2.523596e+03
  3.278460e+00    2.507110e+03
  3.301199e+00    2.493401e+03
  3.323939e+00    2.482432e+03
  3.346678e+00    2.472277e+03
  3.369417e+00    2.463037e+03
  3.392157e+00    2.456919e+03
  3.414896e+00    2.450553e+03
  3.437635e+00    2.443433e+03
  3.460374e+00    2.441918e+03
  3.483114e+00    2.445375e+03
  3.505853e+00    2.452478e+03
  3.528592e+00    2.456847e+03
  3.551331e+00    2.454834e+03
  3.574071e+00    2.449776e+03
  3.596810e+00    2.445843e+03
  3.619549e+00    2.447248e+03
  3.642288e+00    2.452394e+03
  3.665028e+00    2.459185e+03
  3.687767e+00    2.467186e+03
  3.710506e+00    2.475447e+03
  3.733245e+00    2.485438e+03
  3.755985e+00    2.497400e+03
  3.778724e+00    2.508097e+03
  3.801463e+00    2.520984e+03
  3.824203e+00    2.538200e+03
  3.846942e+00    2.546689e+03
  3.869681e+00    2.554330e+03
  3.892420e+00    2.565126e+03
  3.915160e+00    2.577367e+03
  3.937899e+00    2.588435e+03
  3.960638e+00    2.599572e+03
  3.983377e+00    2.613359e+03
  4.006117e+00    2.624562e+03
  4.028856e+00    2.632066e+03
  4.051595e+00    2.642272e+03
  4.074334e+00    2.653624e+03
  4.097074e+00    2.666434e+03
  4.119813e+00    2.678751e+03
  4.142552e+00    2.687671e+03
  4.165292e+00    2.691054e+03
  4.188031e+00    2.689859e+03
  4.210770e+00    2.689267e+03
  4.233509e+00    2.693976e+03
  4.256249e+00    2.695280e+03
  4.278988e+00    2.686458e+03
  4.301727e+00    2.682715e+03
  4.324466e+00    2.679113e+03
  4.347206e+00    2.673850e+03
  4.369945e+00    2.666877e+03
  4.392684e+00    2.660001e+03
  4.415423e+00    2.658190e+03
  4.438163e+00    2.642479e+03
  4.460902e+00    2.626560e+03
  4.483641e+00    2.614486e+03
  4.506380e+00    2.601701e+03
  4.529120e+00    2.588307e+03
  4.551859e+00    2.573270e+03
  4.574598e+00    2.559758e+03
  4.597338e+00    2.543495e+03
  4.620077e+00    2.522021e+03
  4.642816e+00    2.503713e+03
  4.665555e+00    2.486028e+03
  4.688295e+00    2.468282e+03
  4.711034e+00    2.451410e+03
  4.733773e+00    2.435404e+03
  4.756512e+00    2.419514e+03
  4.779252e+00    2.402727e+03
  4.801991e+00    2.386350e+03
  4.824730e+00    2.375356e+03
  4.847469e+00    2.360615e+03
  4.870209e+00    2.340938e+03
  4.892948e+00    2.328117e+03
  4.915687e+00    2.316906e+03
  4.938426e+00    2.305983e+03
  4.961166e+00    2.295280e+03
  4.983905e+00    2.285209e+03
  5.006644e+00    2.277794e+03
  5.029384e+00    2.260094e+03
  5.052123e+00    2.245412e+03
  5.074862e+00    2.233317e+03
  5.097601e+00    2.221878e+03
  5.120341e+00    2.210198e+03
  5.143080e+00    2.198039e+03
  5.165819e+00    2.188280e+03
  5.188558e+00    2.174820e+03
  5.211298e+00    2.158138e+03
  5.234037e+00    2.145659e+03
  5.256776e+00    2.132552e+03
  5.279515e+00    2.112044e+03
  5.302255e+00    2.094798e+03
  5.324994e+00    2.078258e+03
  5.347733e+00    2.060153e+03
  5.370472e+00    2.040934e+03
  5.393212e+00    2.021953e+03
  5.415951e+00    2.006068e+03
  5.438690e+00    1.982784e+03
  5.461430e+00    1.958996e+03
  5.484169e+00    1.937058e+03
  5.506908e+00    1.915736e+03
  5.529647e+00    1.894524e+03
  5.552387e+00    1.874346e+03
  5.575126e+00    1.856922e+03
  5.597865e+00    1.839763e+03
  5.620604e+00    1.816864e+03
  5.643344e+00    1.796691e+03
  5.666083e+00    1.777912e+03
  5.688822e+00    1.759786e+03
  5.711561e+00    1.743162e+03
  5.734301e+00    1.728499e+03
  5.757040e+00    1.716044e+03
  5.779779e+00    1.701979e+03
  5.802519e+00    1.689442e+03
  5.825258e+00    1.680353e+03
  5.847997e+00    1.667891e+03
  5.870736e+00    1.653891e+03
  5.893476e+00    1.642641e+03
  5.916215e+00    1.633036e+03
  5.938954e+00    1.623369e+03
  5.961693e+00    1.614317e+03
  5.984433e+00    1.607368e+03
  6.007172e+00    1.602076e+03
  6.029911e+00    1.592059e+03
  6.052650e+00    1.584687e+03
  6.075390e+00    1.578180e+03
  6.098129e+00    1.571127e+03
  6.120868e+00    1.563980e+03
  6.143607e+00    1.556999e+03
  6.166347e+00    1.551733e+03
  6.189086e+00    1.544320e+03
  6.211825e+00    1.536016e+03
  6.234565e+00    1.530222e+03
  6.257304e+00    1.523089e+03
  6.280043e+00    1.514893e+03
  6.302782e+00    1.508195e+03
  6.325522e+00    1.502395e+03
  6.348261e+00    1.495883e+03
  6.371000e+00    1.487723e+03
  6.393739e+00    1.481174e+03
  6.416479e+00    1.475913e+03
  6.439218e+00    1.467551e+03
  6.461957e+00    1.459992e+03
  6.484696e+00    1.452921e+03
  6.507436e+00    1.445444e+03
  6.530175e+00    1.437258e+03
  6.552914e+00    1.429597e+03
  6.575653e+00    1.422944e+03
  6.598393e+00    1.414838e+03
  6.621132e+00    1.405893e+03
  6.643871e+00    1.398284e+03
  6.666611e+00    1.391204e+03
  6.689350e+00    1.384247e+03
  6.712089e+00    1.377365e+03
  6.734828e+00    1.371143e+03
  6.757568e+00    1.364446e+03
  6.780307e+00    1.356571e+03
  6.803046e+00    1.349610e+03
  6.825785e+00    1.343007e+03
  6.848525e+00    1.335450e+03
  6.871264e+00    1.328825e+03
  6.894003e+00    1.322546e+03
  6.916742e+00    1.316263e+03
  6.939482e+00    1.309782e+03
  6.962221e+00    1.303703e+03
  6.984960e+00    1.298416e+03
  7.007699e+00    1.292949e+03
  7.030439e+00    1.287743e+03
  7.053178e+00    1.283038e+03
  7.075917e+00    1.278485e+03
  7.098657e+00    1.274029e+03
  7.121396e+00    1.269791e+03
  7.144135e+00    1.266101e+03
  7.166874e+00    1.262782e+03
  7.189614e+00    1.259417e+03
  7.212353e+00    1.256748e+03
  7.235092e+00    1.254584e+03
  7.257831e+00    1.252580e+03
  7.280571e+00    1.250801e+03
  7.303310e+00    1.249591e+03
  7.326049e+00    1.248651e+03
  7.348788e+00    1.247866e+03
  7.371528e+00    1.247498e+03
  7.394267e+00    1.247063e+03
  7.417006e+00    1.246520e+03
  7.439746e+00    1.246564e+03
  7.462485e+00    1.247330e+03
  7.485224e+00    1.248443e+03
  7.507963e+00    1.249569e+03
  7.530703e+00    1.251113e+03
  7.553442e+00    1.252772e+03
  7.576181e+00    1.254581e+03
  7.598920e+00    1.256294e+03
  7.621660e+00    1.258193e+03
  7.644399e+00    1.260277e+03
  7.667138e+00    1.262110e+03
  7.689877e+00    1.263754e+03
  7.712617e+00    1.265175e+03
  7.735356e+00    1.266730e+03
  7.758095e+00    1.267905e+03
  7.780834e+00    1.269215e+03
  7.803574e+00    1.270603e+03
  7.826313e+00    1.271986e+03
  7.849052e+00    1.273335e+03
  7.871792e+00    1.274337e+03
  7.894531e+00    1.274719e+03
  7.917270e+00    1.274480e+03
  7.940009e+00    1.274169e+03
  7.962749e+00    1.273573e+03
  7.985488e+00    1.272652e+03
  8.008227e+00    1.271510e+03
  8.030966e+00    1.269937e+03
  8.053706e+00    1.268099e+03
  8.076445e+00    1.265981e+03
  8.099184e+00    1.263527e+03
  8.121923e+00    1.261280e+03
  8.144663e+00    1.258645e+03
  8.167402e+00    1.255249e+03
  8.190141e+00    1.252299e+03
  8.212880e+00    1.249059e+03
  8.235620e+00    1.245581e+03
  8.258359e+00    1.242305e+03
  8.281098e+00    1.239082e+03
  8.303838e+00    1.235498e+03
  8.326577e+00    1.231486e+03
  8.349316e+00    1.227614e+03
  8.372055e+00    1.223873e+03
  8.394795e+00    1.220468e+03
  8.417534e+00    1.216879e+03
  8.440273e+00    1.213409e+03
  8.463012e+00    1.209890e+03
  8.485752e+00    1.206048e+03
  8.508491e+00    1.202183e+03
  8.531230e+00    1.198238e+03
  8.553969e+00    1.194826e+03
  8.576709e+00    1.191599e+03
  8.599448e+00    1.188317e+03
  8.622187e+00    1.184969e+03
  8.644927e+00    1.181402e+03
  8.667666e+00    1.178032e+03
  8.690405e+00    1.174485e+03
  8.713144e+00    1.171387e+03
  8.735884e+00    1.168284e+03
  8.758623e+00    1.164830e+03
  8.781362e+00    1.161794e+03
  8.804101e+00    1.158699e+03
  8.826841e+00    1.155052e+03
  8.849580e+00    1.151101e+03
  8.872319e+00    1.147489e+03
  8.895058e+00    1.143994e+03
  8.917798e+00    1.140094e+03
  8.940537e+00    1.136374e+03
  8.963276e+00    1.132708e+03
  8.986015e+00    1.128788e+03
  9.008755e+00    1.125176e+03
  9.031494e+00    1.121268e+03
  9.054233e+00    1.117329e+03
  9.076973e+00    1.113397e+03
  9.099712e+00    1.109429e+03
  9.122451e+00    1.105434e+03
  9.145190e+00    1.101243e+03
  9.167930e+00    1.096774e+03
  9.190669e+00    1.092202e+03
  9.213408e+00    1.087625e+03
  9.236147e+00    1.082924e+03
  9.258887e+00    1.078133e+03
  9.281626e+00    1.073756e+03
  9.304365e+00    1.068992e+03
  9.327104e+00    1.064268e+03
  9.349844e+00    1.059725e+03
  9.372583e+00    1.054996e+03
  9.395322e+00    1.050234e+03
  9.418061e+00    1.045657e+03
  9.440801e+00    1.041188e+03
  9.463540e+00    1.036663e+03
  9.486279e+00    1.032209e+03
  9.509019e+00    1.027815e+03
  9.531758e+00    1.023266e+03
  9.554497e+00    1.018734e+03
  9.577236e+00    1.014427e+03
  9.599976e+00    1.009828e+03
  9.622715e+00    1.005481e+03
  9.645454e+00    1.001204e+03
  9.668193e+00    9.971946e+02
  9.690933e+00    9.932327e+02
  9.713672e+00    9.892297e+02
  9.736411e+00    9.854152e+02
  9.759150e+00    9.821247e+02
  9.781890e+00    9.788331e+02
  9.804629e+00    9.751537e+02
  9.827368e+00    9.716155e+02
  9.850107e+00    9.680231e+02
  9.872847e+00    9.648168e+02
  9.895586e+00    9.616546e+02
  9.918325e+00    9.587138e+02
  9.941065e+00    9.560261e+02
  9.963804e+00    9.534833e+02
  9.986543e+00    9.508878e+02
  1.000928e+01    9.483928e+02
  1.003202e+01    9.458344e+02
  1.005476e+01    9.433846e+02
  1.007750e+01    9.409533e+02
  1.010024e+01    9.387704e+02
  1.012298e+01    9.367787e+02
  1.014572e+01    9.345616e+02
  1.016846e+01    9.324340e+02
  1.019120e+01    9.302253e+02
  1.021394e+01    9.280847e+02
  1.023667e+01    9.261320e+02
  1.025941e+01    9.242255e+02
  1.028215e+01    9.225378e+02
  1.030489e+01    9.209818e+02
  1.032763e+01    9.192947e+02
  1.035037e+01    9.177318e+02
  1.037311e+01    9.161675e+02
  1.039585e+01    9.145955e+02
  1.041859e+01    9.128486e+02
  1.044133e+01    9.111815e+02
  1.046407e+01    9.095709e+02
  1.048681e+01    9.081501e+02
  1.050955e+01    9.068422e+02
  1.053229e+01    9.053167e+02
  1.055502e+01    9.038251e+02
  1.057776e+01    9.023177e+02
  1.060050e+01    9.007910e+02
  1.062324e+01    8.991777e+02
  1.064598e+01    8.976304e+02
  1.066872e+01    8.963036e+02
  1.069146e+01    8.948656e+02
  1.071420e+01    8.933862e+02
  1.073694e+01    8.917877e+02
  1.075968e+01    8.901864e+02
  1.078242e+01    8.884821e+02
  1.080516e+01    8.868372e+02
  1.082790e+01    8.852401e+02
  1.085064e+01    8.835891e+02
  1.087337e+01    8.820334e+02
  1.089611e+01    8.806518e+02
  1.091885e+01    8.792124e+02
  1.094159e+01    8.777322e+02
  1.096433e+01    8.760797e+02
  1.098707e+01    8.744327e+02
  1.100981e+01    8.727390e+02
  1.103255e+01    8.711407e+02
  1.105529e+01    8.697141e+02
  1.107803e+01    8.681022e+02
  1.110077e+01    8.664405e+02
  1.112351e+01    8.649101e+02
  1.114625e+01    8.630940e+02
  1.116898e+01    8.613544e+02
  1.119172e+01    8.598395e+02
  1.121446e+01    8.583655e+02
  1.123720e+01    8.567490e+02
  1.125994e+01    8.552748e+02
  1.128268e+01    8.537524e+02
  1.130542e+01    8.523578e+02
  1.132816e+01    8.509326e+02
  1.135090e+01    8.494385e+02
  1.137364e+01    8.480297e+02
  1.139638e+01    8.468118e+02
  1.141912e+01    8.454957e+02
  1.144186e+01    8.442731e+02
  1.146460e+01    8.430905e+02
  1.148733e+01    8.421398e+02
  1.151007e+01    8.411617e+02
  1.153281e+01    8.400028e+02
  1.155555e+01    8.389744e+02
  1.157829e+01    8.380127e+02
  1.160103e+01    8.370733e+02
  1.162377e+01    8.359948e+02
  1.164651e+01    8.350557e+02
  1.166925e+01    8.342675e+02
  1.169199e+01    8.334650e+02
  1.171473e+01    8.327551e+02
  1.173747e+01    8.320920e+02
  1.176021e+01    8.314887e+02
  1.178294e+01    8.309551e+02
  1.180568e+01    8.305288e+02
  1.182842e+01    8.298981e+02
  1.185116e+01    8.293353e+02
  1.187390e+01    8.288521e+02
  1.189664e+01    8.284186e+02
  1.191938e+01    8.280473e+02
  1.194212e+01    8.276933e+02
  1.196486e+01    8.273881e+02
  1.198760e+01    8.271395e+02
  1.201034e+01    8.268431e+02
  1.203308e+01    8.265311e+02
  1.205582e+01    8.263345e+02
  1.207856e+01    8.258590e+02
  1.210129e+01    8.253976e+02
  1.212403e+01    8.249449e+02
  1.214677e+01    8.246177e+02
  1.216951e+01    8.242273e+02
  1.219225e+01    8.236696e+02
  1.221499e+01    8.232250e+02
  1.223773e+01    8.225967e+02
  1.226047e+01    8.219349e+02
  1.228321e+01    8.213154e+02
  1.230595e+01    8.205044e+02
  1.232869e+01    8.197478e+02
  1.235143e+01    8.190278e+02
  1.237417e+01    8.180507e+02
  1.239691e+01    8.171978e+02
  1.241964e+01    8.161484e+02
  1.244238e+01    8.151886e+02
  1.246512e+01    8.141271e+02
  1.248786e+01    8.129509e+02
  1.251060e+01    8.117786e+02
  1.253334e+01    8.104072e+02
  1.255608e+01    8.090802e+02
  1.257882e+01    8.076638e+02
  1.260156e+01    8.061001e+02
  1.262430e+01    8.045566e+02
  1.264704e+01    8.030349e+02
  1.266978e+01    8.015168e+02
  1.269252e+01    7.998638e+02
  1.271525e+01    7.981561e+02
  1.273799e+01    7.962963e+02
  1.276073e+01    7.944535e+02
  1.278347e+01    7.927577e+02
  1.280621e+01    7.909324e+02
  1.282895e+01    7.890915e+02
  1.285169e+01    7.873232e+02
  1.287443e+01    7.854731e+02
  1.289717e+01    7.835789e+02
  1.291991e+01    7.816801e+02
  1.294265e+01    7.797350e+02
  1.296539e+01    7.778524e+02
  1.298813e+01    7.759294e+02
  1.301087e+01    7.740460e+02
  1.303360e+01    7.720948e+02
  1.305634e+01    7.701314e+02
  1.307908e+01    7.681082e+02
  1.310182e+01    7.660609e+02
  1.312456e+01    7.642315e+02
  1.314730e+01    7.622982e+02
  1.317004e+01    7.604567e+02
  1.319278e+01    7.586269e+02
  1.321552e+01    7.567130e+02
  1.323826e+01    7.547299e+02
  1.326100e+01    7.529183e+02
  1.328374e+01    7.512194e+02
  1.330648e+01    7.494636e+02
  1.332921e+01    7.477142e+02
  1.335195e+01    7.459687e+02
  1.337469e+01    7.443057e+02
  1.339743e+01    7.426792e+02
  1.342017e+01    7.410246e+02
  1.344291e+01    7.393748e+02
  1.346565e+01    7.379116e+02
  1.348839e+01    7.364194e+02
  1.351113e+01    7.349592e+02
  1.353387e+01    7.333820e+02
  1.355661e+01    7.317029e+02
  1.357935e+01    7.299276e+02
  1.360209e+01    7.282389e+02
  1.362483e+01    7.266359e+02
  1.364756e+01    7.251902e+02
  1.367030e+01    7.237133e+02
  1.369304e+01    7.222332e+02
  1.371578e+01    7.208411e+02
  1.373852e+01    7.194951e+02
  1.376126e+01    7.181871e+02
  1.378400e+01    7.168599e+02
  1.380674e+01    7.155499e+02
  1.382948e+01    7.143096e+02
  1.385222e+01    7.131667e+02
  1.387496e+01    7.120988e+02
  1.389770e+01    7.108607e+02
  1.392044e+01    7.097142e+02
  1.394317e+01    7.085720e+02
  1.396591e+01    7.073753e+02
  1.398865e+01    7.061884e+02
  1.401139e+01    7.049098e+02
  1.403413e+01    7.038420e+02
  1.405687e+01    7.027775e+02
  1.407961e+01    7.017178e+02
  1.410235e+01    7.007561e+02
  1.412509e+01    6.997100e+02
  1.414783e+01    6.986034e+02
  1.417057e+01    6.976927e+02
  1.419331e+01    6.965833e+02
  1.421605e+01    6.956202e+02
  1.423879e+01    6.947314e+02
  1.426152e+01    6.939111e+02
  1.428426e+01    6.930005e+02
  1.430700e+01    6.919150e+02
  1.432974e+01    6.908392e+02
  1.435248e+01    6.898897e+02
  1.437522e+01    6.890170e+02
  1.439796e+01    6.881660e+02
  1.442070e+01    6.872740e+02
  1.444344e+01    6.862946e+02
  1.446618e+01    6.853920e+02
  1.448892e+01    6.845743e+02
  1.451166e+01    6.837868e+02
  1.453440e+01    6.830258e+02
  1.455714e+01    6.821922e+02
  1.457987e+01    6.814350e+02
  1.460261e+01    6.806073e+02
  1.462535e+01    6.797888e+02
  1.464809e+01    6.790590e+02
  1.467083e+01    6.782131e+02
  1.469357e+01    6.773730e+02
  1.471631e+01    6.765164e+02
  1.473905e+01    6.756037e+02
  1.476179e+01    6.747922e+02
  1.478453e+01    6.739355e+02
  1.480727e+01    6.731244e+02
  1.483001e+01    6.722870e+02
  1.485275e+01    6.715428e+02
  1.487548e+01    6.707794e+02
  1.489822e+01    6.700788e+02
  1.492096e+01    6.693049e+02
  1.494370e+01    6.685435e+02
  1.496644e+01    6.677349e+02
  1.498918e+01    6.669271e+02
  1.501192e+01    6.662489e+02
  1.503466e+01    6.657183e+02
  1.505740e+01    6.648066e+02
  1.508014e+01    6.639926e+02
  1.510288e+01    6.631336e+02
  1.512562e+01    6.621484e+02
  1.514836e+01    6.613382e+02
  1.517110e+01    6.605671e+02
  1.519383e+01    6.597590e+02
  1.521657e+01    6.589809e+02
  1.523931e+01    6.582215e+02
  1.526205e+01    6.573681e+02
  1.528479e+01    6.565082e+02
  1.530753e+01    6.557333e+02
  1.533027e+01    6.549349e+02
  1.535301e+01    6.540891e+02
  1.537575e+01    6.532415e+02
  1.539849e+01    6.524570e+02
  1.542123e+01    6.516571e+02
  1.544397e+01    6.507968e+02
  1.546671e+01    6.499331e+02
  1.548944e+01    6.490370e+02
  1.551218e+01    6.481324e+02
  1.553492e+01    6.472784e+02
  1.555766e+01    6.463912e+02
  1.558040e+01    6.455866e+02
  1.560314e+01    6.447315e+02
  1.562588e+01    6.438676e+02
  1.564862e+01    6.430078e+02
  1.567136e+01    6.421496e+02
  1.569410e+01    6.413550e+02
  1.571684e+01    6.405477e+02
  1.573958e+01    6.396757e+02
  1.576232e+01    6.388848e+02
  1.578506e+01    6.380515e+02
  1.580779e+01    6.372813e+02
  1.583053e+01    6.363459e+02
  1.585327e+01    6.354773e+02
  1.587601e+01    6.346223e+02
  1.589875e+01    6.337614e+02
  1.592149e+01    6.329716e+02
  1.594423e+01    6.321243e+02
  1.596697e+01    6.313566e+02
  1.598971e+01    6.306403e+02
  1.601245e+01    6.299037e+02
  1.603519e+01    6.291352e+02
  1.605793e+01    6.282858e+02
  1.608067e+01    6.275160e+02
  1.610341e+01    6.267000e+02
  1.612614e+01    6.260278e+02
  1.614888e+01    6.253452e+02
  1.617162e+01    6.246292e+02
  1.619436e+01    6.239385e+02
  1.621710e+01    6.231846e+02
  1.623984e+01    6.223834e+02
  1.626258e+01    6.216107e+02
  1.628532e+01    6.208296e+02
  1.630806e+01    6.200852e+02
  1.633080e+01    6.194738e+02
  1.635354e+01    6.188063e+02
  1.637628e+01    6.180579e+02
  1.639902e+01    6.172889e+02
  1.642175e+01    6.165255e+02
  1.644449e+01    6.158469e+02
  1.646723e+01    6.151155e+02
  1.648997e+01    6.143999e+02
  1.651271e+01    6.136191e+02
  1.653545e+01    6.128804e+02
  1.655819e+01    6.120927e+02
  1.658093e+01    6.112531e+02
  1.660367e+01    6.105278e+02
  1.662641e+01    6.097621e+02
  1.664915e+01    6.089957e+02
  1.667189e+01    6.083121e+02
  1.669463e+01    6.075343e+02
  1.671737e+01    6.066780e+02
  1.674010e+01    6.058484e+02
  1.676284e+01    6.050448e+02
  1.678558e+01    6.041720e+02
  1.680832e+01    6.032484e+02
  1.683106e+01    6.023369e+02
  1.685380e+01    6.014189e+02
  1.687654e+01    6.005283e+02
  1.689928e+01    5.996343e+02
  1.692202e+01    5.988628e+02
  1.694476e+01    5.979638e+02
  1.696750e+01    5.970205e+02
  1.699024e+01    5.960005e+02
  1.701298e+01    5.950852e+02
  1.703571e+01    5.941319e+02
  1.705845e+01    5.930750e+02
  1.708119e+01    5.920544e+02
  1.710393e+01    5.910270e+02
  1.712667e+01    5.899346e+02
  1.714941e+01    5.888082e+02
  1.717215e+01    5.878880e+02
  1.719489e+01    5.868970e+02
  1.721763e+01    5.858159e+02
  1.724037e+01    5.847807e+02
  1.726311e+01    5.837632e+02
  1.728585e+01    5.827274e+02
  1.730859e+01    5.816277e+02
  1.733133e+01    5.805900e+02
  1.735406e+01    5.795715e+02
  1.737680e+01    5.784976e+02
  1.739954e+01    5.774043e+02
  1.742228e+01    5.762863e+02
  1.744502e+01    5.751847e+02
  1.746776e+01    5.741708e+02
  1.749050e+01    5.731538e+02
  1.751324e+01    5.721028e+02
  1.753598e+01    5.710372e+02
  1.755872e+01    5.699125e+02
  1.758146e+01    5.688929e+02
  1.760420e+01    5.678907e+02
  1.762694e+01    5.668885e+02
  1.764968e+01    5.658538e+02
  1.767241e+01    5.648513e+02
  1.769515e+01    5.639177e+02
  1.771789e+01    5.629025e+02
  1.774063e+01    5.619841e+02
  1.776337e+01    5.610197e+02
  1.778611e+01    5.600919e+02
  1.780885e+01    5.591353e+02
  1.783159e+01    5.581302e+02
  1.785433e+01    5.571816e+02
  1.787707e+01    5.562880e+02
  1.789981e+01    5.553641e+02
  1.792255e+01    5.544556e+02
  1.794529e+01    5.536239e+02
  1.796802e+01    5.527031e+02
  1.799076e+01    5.518409e+02
  1.801350e+01    5.509942e+02
  1.803624e+01    5.501342e+02
  1.805898e+01    5.492808e+02
  1.808172e+01    5.484283e+02
  1.810446e+01    5.476105e+02
  1.812720e+01    5.467869e+02
  1.814994e+01    5.459992e+02
  1.817268e+01    5.451539e+02
  1.819542e+01    5.442943e+02
  1.821816e+01    5.434731e+02
  1.824090e+01    5.427114e+02
  1.826364e+01    5.419464e+02
  1.828637e+01    5.411460e+02
  1.830911e+01    5.403552e+02
  1.833185e+01    5.395988e+02
  1.835459e+01    5.388206e+02
  1.837733e+01    5.379899e+02
  1.840007e+01    5.372043e+02
  1.842281e+01    5.365080e+02
  1.844555e+01    5.358234e+02
  1.846829e+01    5.350842e+02
  1.849103e+01    5.343629e+02
  1.851377e+01    5.335867e+02
  1.853651e+01    5.328355e+02
  1.855925e+01    5.321075e+02
  1.858198e+01    5.313948e+02
  1.860472e+01    5.307142e+02
  1.862746e+01    5.300060e+02
  1.865020e+01    5.293009e+02
  1.867294e+01    5.285873e+02
  1.869568e+01    5.279591e+02
  1.871842e+01    5.272863e+02
  1.874116e+01    5.265999e+02
  1.876390e+01    5.258914e+02
  1.878664e+01    5.252280e+02
  1.880938e+01    5.245764e+02
  1.883212e+01    5.239872e+02
  1.885486e+01    5.233234e+02
  1.887760e+01    5.227144e+02
  1.890033e+01    5.220238e+02
  1.892307e+01    5.212856e+02
  1.894581e+01    5.205871e+02
  1.896855e+01    5.199254e+02
  1.899129e+01    5.192669e+02
  1.901403e+01    5.185433e+02
  1.903677e+01    5.179292e+02
  1.905951e+01    5.173362e+02
  1.908225e+01    5.166960e+02
  1.910499e+01    5.159981e+02
  1.912773e+01    5.152958e+02
  1.915047e+01    5.146342e+02
  1.917321e+01    5.139598e+02
  1.919594e+01    5.132859e+02
  1.921868e+01    5.126442e+02
  1.924142e+01    5.119865e+02
  1.926416e+01    5.112578e+02
  1.928690e+01    5.105502e+02
  1.930964e+01    5.098474e+02
  1.933238e+01    5.091755e+02
  1.935512e+01    5.085205e+02
  1.937786e+01    5.078286e+02
  1.940060e+01    5.071788e+02
  1.942334e+01    5.065242e+02
  1.944608e+01    5.058187e+02
  1.946882e+01    5.051299e+02
  1.949156e+01    5.044631e+02
  1.951429e+01    5.037886e+02
  1.953703e+01    5.030933e+02
  1.955977e+01    5.024111e+02
  1.958251e+01    5.017710e+02
  1.960525e+01    5.011775e+02
  1.962799e+01    5.004962e+02
  1.965073e+01    4.998019e+02
  1.967347e+01    4.990493e+02
  1.969621e+01    4.983589e+02
  1.971895e+01    4.976297e+02
  1.974169e+01    4.969639e+02
  1.976443e+01    4.962404e+02
  1.978717e+01    4.955647e+02
  1.980991e+01    4.947856e+02
  1.983264e+01    4.941011e+02
  1.985538e+01    4.934358e+02
  1.987812e+01    4.927139e+02
  1.990086e+01    4.919368e+02
  1.992360e+01    4.912046e+02
  1.994634e+01    4.904837e+02
  1.996908e+01    4.896557e+02
  1.999182e+01    4.888936e+02
  2.001456e+01    4.881659e+02
  2.003730e+01    4.874193e+02
  2.006004e+01    4.866873e+02
  2.008278e+01    4.859123e+02
  2.010552e+01    4.851752e+02
  2.012825e+01    4.843841e+02
  2.015099e+01    4.836613e+02
  2.017373e+01    4.828785e+02
  2.019647e+01    4.820686e+02
  2.021921e+01    4.813307e+02
  2.024195e+01    4.805587e+02
  2.026469e+01    4.797264e+02
  2.028743e+01    4.788995e+02
  2.031017e+01    4.780517e+02
  2.033291e+01    4.772660e+02
  2.035565e+01    4.764593e+02
  2.037839e+01    4.757448e+02
  2.040113e+01    4.749355e+02
  2.042387e+01    4.741308e+02
  2.044660e+01    4.733839e+02
  2.046934e+01    4.726292e+02
  2.049208e+01    4.718450e+02
  2.051482e+01    4.711508e+02
  2.053756e+01    4.704101e+02
  2.056030e+01    4.696552e+02
  2.058304e+01    4.689061e+02
  2.060578e+01    4.681530e+02
  2.062852e+01    4.674431e+02
  2.065126e+01    4.667287e+02
  2.067400e+01    4.660365e+02
  2.069674e+01    4.652737e+02
  2.071948e+01    4.645585e+02
  2.074221e+01    4.637857e+02
  2.076495e+01    4.629993e+02
  2.078769e+01    4.622604e+02
  2.081043e+01    4.614869e+02
  2.083317e+01    4.607244e+02
  2.085591e+01    4.599629e+02
  2.087865e+01    4.591994e+02
  2.090139e+01    4.584850e+02
  2.092413e+01    4.577298e+02
  2.094687e+01    4.569868e+02
  2.096961e+01    4.561961e+02
  2.099235e+01    4.555187e+02
  2.101509e+01    4.547897e+02
  2.103783e+01    4.540383e+02
  2.106056e+01    4.532690e+02
  2.108330e+01    4.524502e+02
  2.110604e+01    4.516646e+02
  2.112878e+01    4.509249e+02
  2.115152e+01    4.501770e+02
  2.117426e+01    4.494272e+02
  2.119700e+01    4.486557e+02
  2.121974e+01    4.479162e+02
  2.124248e+01    4.471690e+02
  2.126522e+01    4.464007e+02
  2.128796e+01    4.457117e+02
  2.131070e+01    4.449742e+02
  2.133344e+01    4.441950e+02
  2.135618e+01    4.433939e+02
  2.137891e+01    4.426643e+02
  2.140165e+01    4.419632e+02
  2.142439e+01    4.412120e+02
  2.144713e+01    4.407320e+02
  2.146987e+01    4.399874e+02
  2.149261e+01    4.391693e+02
  2.151535e+01    4.384155e+02
  2.153809e+01    4.376437e+02
  2.156083e+01    4.368399e+02
  2.158357e+01    4.360623e+02
  2.160631e+01    4.353452e+02
  2.162905e+01    4.345731e+02
  2.165179e+01    4.338321e+02
  2.167452e+01    4.330358e+02
  2.169726e+01    4.323145e+02
  2.172000e+01    4.315546e+02
  2.174274e+01    4.307867e+02
  2.176548e+01    4.300756e+02
  2.178822e+01    4.293880e+02
  2.181096e+01    4.286775e+02
  2.183370e+01    4.278454e+02
  2.185644e+01    4.271254e+02
  2.187918e+01    4.263900e+02
  2.190192e+01    4.256801e+02
  2.192466e+01    4.249400e+02
  2.194740e+01    4.241909e+02
  2.197014e+01    4.234982e+02
  2.199287e+01    4.227782e+02
  2.201561e+01    4.220361e+02
  2.203835e+01    4.212876e+02
  2.206109e+01    4.206210e+02
  2.208383e+01    4.199258e+02
  2.210657e+01    4.191632e+02
  2.212931e+01    4.184501e+02
  2.215205e+01    4.177111e+02
  2.217479e+01    4.170236e+02
  2.219753e+01    4.163538e+02
  2.222027e+01    4.156582e+02
  2.224301e+01    4.149778e+02
  2.226575e+01    4.142806e+02
  2.228848e+01    4.134924e+02
  2.231122e+01    4.127873e+02
  2.233396e+01    4.120948e+02
  2.235670e+01    4.113547e+02
  2.237944e+01    4.106312e+02
  2.240218e+01    4.099519e+02
  2.242492e+01    4.092715e+02
  2.244766e+01    4.085956e+02
  2.247040e+01    4.078791e+02
  2.249314e+01    4.071631e+02
  2.251588e+01    4.065533e+02
  2.253862e+01    4.058910e+02
  2.256136e+01    4.052043e+02
  2.258410e+01    4.045439e+02
  2.260683e+01    4.038689e+02
  2.262957e+01    4.031751e+02
  2.265231e+01    4.025026e+02
  2.267505e+01    4.018612e+02
  2.269779e+01    4.011716e+02
  2.272053e+01    4.005136e+02
  2.274327e+01    3.998767e+02
  2.276601e+01    3.992516e+02
  2.278875e+01    3.985510e+02
  2.281149e+01    3.978684e+02
  2.283423e+01    3.971995e+02
  2.285697e+01    3.965409e+02
  2.287971e+01    3.959369e+02
  2.290244e+01    3.952809e+02
  2.292518e+01    3.946106e+02
  2.294792e+01    3.939331e+02
  2.297066e+01    3.932824e+02
  2.299340e+01    3.925971e+02
  2.301614e+01    3.919949e+02
  2.303888e+01    3.913612e+02
  2.306162e+01    3.906884e+02
  2.308436e+01    3.900405e+02
  2.310710e+01    3.893728e+02
  2.312984e+01    3.887164e+02
  2.315258e+01    3.880289e+02
  2.317532e+01    3.873444e+02
  2.319806e+01    3.866886e+02
  2.322079e+01    3.860714e+02
  2.324353e+01    3.853994e+02
  2.326627e+01    3.847503e+02
  2.328901e+01    3.841511e+02
  2.331175e+01    3.834837e+02
  2.333449e+01    3.828202e+02
  2.335723e+01    3.821577e+02
  2.337997e+01    3.814961e+02
  2.340271e+01    3.808925e+02
  2.342545e+01    3.802801e+02
  2.344819e+01    3.795947e+02
  2.347093e+01    3.789339e+02
  2.349367e+01    3.781968e+02
  2.351641e+01    3.775203e+02
  2.353914e+01    3.768725e+02
  2.356188e+01    3.762674e+02
  2.358462e+01    3.756051e+02
  2.360736e+01    3.749634e+02
  2.363010e+01    3.742898e+02
  2.365284e+01    3.737616e+02
  2.367558e+01    3.734382e+02
  2.369832e+01    3.726500e+02
  2.372106e+01    3.719208e+02
  2.374380e+01    3.712301e+02
  2.376654e+01    3.705230e+02
  2.378928e+01    3.698454e+02
  2.381202e+01    3.691589e+02
  2.383475e+01    3.684762e+02
  2.385749e+01    3.678144e+02
  2.388023e+01    3.671300e+02
  2.390297e+01    3.664045e+02
  2.392571e+01    3.657142e+02
  2.394845e+01    3.650775e+02
  2.397119e+01    3.644118e+02
  2.399393e+01    3.637084e+02
  2.401667e+01    3.630279e+02
  2.403941e+01    3.623523e+02
  2.406215e+01    3.617411e+02
  2.408489e+01    3.610967e+02
  2.410763e+01    3.604615e+02
  2.413037e+01    3.597345e+02
  2.415310e+01    3.590922e+02
  2.417584e+01    3.584704e+02
  2.419858e+01    3.577633e+02
  2.422132e+01    3.570502e+02
  2.424406e+01    3.564369e+02
  2.426680e+01    3.558240e+02
  2.428954e+01    3.551581e+02
  2.431228e+01    3.545031e+02
  2.433502e+01    3.538449e+02
  2.435776e+01    3.531472e+02
  2.438050e+01    3.524396e+02
  2.440324e+01    3.517426e+02
  2.442598e+01    3.510714e+02
  2.444871e+01    3.504233e+02
  2.447145e+01    3.497738e+02
  2.449419e+01    3.490612e+02
  2.451693e+01    3.484202e+02
  2.453967e+01    3.477388e+02
  2.456241e+01    3.470713e+02
  2.458515e+01    3.464059e+02
  2.460789e+01    3.456528e+02
  2.463063e+01    3.449813e+02
  2.465337e+01    3.443578e+02
  2.467611e+01    3.436882e+02
  2.469885e+01    3.430225e+02
  2.472159e+01    3.423242e+02
  2.474433e+01    3.416366e+02
  2.476706e+01    3.410183e+02
  2.478980e+01    3.403312e+02
  2.481254e+01    3.396357e+02
  2.483528e+01    3.389527e+02
  2.485802e+01    3.382885e+02
  2.488076e+01    3.376171e+02
  2.490350e+01    3.369164e+02
  2.492624e+01    3.362265e+02
  2.494898e+01    3.355760e+02
  2.497172e+01    3.349261e+02
  2.499446e+01    3.341981e+02
  2.501720e+01    3.335086e+02
  2.503994e+01    3.328801e+02
  2.506268e+01    3.322295e+02
  2.508541e+01    3.315919e+02
  2.510815e+01    3.309247e+02
  2.513089e+01    3.302239e+02
  2.515363e+01    3.295520e+02
  2.517637e+01    3.288788e+02
  2.519911e+01    3.281706e+02
  2.522185e+01    3.275321e+02
  2.524459e+01    3.268498e+02
  2.526733e+01    3.261519e+02
  2.529007e+01    3.255096e+02
  2.531281e+01    3.249078e+02
  2.533555e+01    3.243519e+02
  2.535829e+01    3.236905e+02
  2.538102e+01    3.230505e+02
  2.540376e+01    3.224098e+02
  2.542650e+01    3.217879e+02
  2.544924e+01    3.211483e+02
  2.547198e+01    3.204631e+02
  2.549472e+01    3.198328e+02
  2.551746e+01    3.192917e+02
  2.554020e+01    3.186147e+02
  2.556294e+01    3.179444e+02
  2.558568e+01    3.172463e+02
  2.560842e+01    3.165957e+02
  2.563116e+01    3.159934e+02
  2.565390e+01    3.153539e+02
  2.567664e+01    3.147238e+02
  2.569937e+01    3.140639e+02
  2.572211e+01    3.134378e+02
  2.574485e+01    3.127944e+02
  2.576759e+01    3.121977e+02
  2.579033e+01    3.116071e+02
  2.581307e+01    3.110399e+02
  2.583581e+01    3.103507e+02
  2.585855e+01    3.097147e+02
  2.588129e+01    3.090917e+02
  2.590403e+01    3.084746e+02
  2.592677e+01    3.078551e+02
  2.594951e+01    3.072324e+02
  2.597225e+01    3.065764e+02
  2.599498e+01    3.059385e+02
  2.601772e+01    3.053244e+02
  2.604046e+01    3.047193e+02
  2.606320e+01    3.040552e+02
  2.608594e+01    3.034689e+02
  2.610868e+01    3.028770e+02
  2.613142e+01    3.022141e+02
  2.615416e+01    3.016351e+02
  2.617690e+01    3.010540e+02
  2.619964e+01    3.003775e+02
  2.622238e+01    2.997818e+02
  2.624512e+01    2.991572e+02
  2.626786e+01    2.985369e+02
  2.629060e+01    2.979516e+02
  2.631333e+01    2.973385e+02
  2.633607e+01    2.967250e+02
  2.635881e+01    2.960843e+02
  2.638155e+01    2.954617e+02
  2.640429e+01    2.948771e+02
  2.642703e+01    2.942722e+02
  2.644977e+01    2.935878e+02
  2.647251e+01    2.929158e+02
  2.649525e+01    2.923177e+02
  2.651799e+01    2.917740e+02
  2.654073e+01    2.911778e+02
  2.656347e+01    2.905742e+02
  2.658621e+01    2.899258e+02
  2.660894e+01    2.893329e+02
  2.663168e+01    2.886981e+02
  2.665442e+01    2.881075e+02
  2.667716e+01    2.874564e+02
  2.669990e+01    2.868691e+02
  2.672264e+01    2.862589e+02
  2.674538e+01    2.856454e+02
  2.676812e+01    2.850066e+02
  2.679086e+01    2.844081e+02
  2.681360e+01    2.837678e+02
  2.683634e+01    2.832112e+02
  2.685908e+01    2.825763e+02
  2.688182e+01    2.819726e+02
  2.690456e+01    2.813509e+02
  2.692729e+01    2.807747e+02
  2.695003e+01    2.801263e+02
  2.697277e+01    2.795239e+02
  2.699551e+01    2.789453e+02
  2.701825e+01    2.782738e+02
  2.704099e+01    2.776732e+02
  2.706373e+01    2.770088e+02
  2.708647e+01    2.763647e+02
  2.710921e+01    2.757453e+02
  2.713195e+01    2.751857e+02
  2.715469e+01    2.746055e+02
  2.717743e+01    2.748859e+02
  2.720017e+01    2.749335e+02
  2.722291e+01    2.747616e+02
  2.724564e+01    2.744631e+02
  2.726838e+01    2.741158e+02
  2.729112e+01    2.737601e+02
  2.731386e+01    2.733587e+02
  2.733660e+01    2.729842e+02
  2.735934e+01    2.725284e+02
  2.738208e+01    2.721047e+02
  2.740482e+01    2.712249e+02
  2.742756e+01    2.703803e+02
  2.745030e+01    2.695964e+02
  2.747304e+01    2.688794e+02
  2.749578e+01    2.682436e+02
  2.751852e+01    2.675387e+02
  2.754125e+01    2.668646e+02
  2.756399e+01    2.662110e+02
  2.758673e+01    2.655325e+02
  2.760947e+01    2.647473e+02
  2.763221e+01    2.632597e+02
  2.765495e+01    2.620646e+02
  2.767769e+01    2.610263e+02
  2.770043e+01    2.600221e+02
  2.772317e+01    2.590246e+02
  2.774591e+01    2.580875e+02
  2.776865e+01    2.571721e+02
  2.779139e+01    2.562613e+02
  2.781413e+01    2.553422e+02
  2.783687e+01    2.551360e+02
  2.785960e+01    2.552545e+02
  2.788234e+01    2.549228e+02
  2.790508e+01    2.545903e+02
  2.792782e+01    2.542036e+02
  2.795056e+01    2.537103e+02
  2.797330e+01    2.531809e+02
  2.799604e+01    2.527132e+02
  2.801878e+01    2.522652e+02
  2.804152e+01    2.517151e+02
  2.806426e+01    2.512110e+02
  2.808700e+01    2.506873e+02
  2.810974e+01    2.501679e+02
  2.813248e+01    2.496137e+02
  2.815521e+01    2.491008e+02
  2.817795e+01    2.485500e+02
  2.820069e+01    2.480104e+02
  2.822343e+01    2.474453e+02
  2.824617e+01    2.468547e+02
  2.826891e+01    2.463133e+02
  2.829165e+01    2.457969e+02
  2.831439e+01    2.452671e+02
  2.833713e+01    2.447067e+02
  2.835987e+01    2.441650e+02
  2.838261e+01    2.435782e+02
  2.840535e+01    2.430376e+02
  2.842809e+01    2.424827e+02
  2.845083e+01    2.418879e+02
  2.847356e+01    2.413295e+02
  2.849630e+01    2.407911e+02
  2.851904e+01    2.402880e+02
  2.854178e+01    2.396720e+02
  2.856452e+01    2.391243e+02
  2.858726e+01    2.385600e+02
  2.861000e+01    2.380226e+02
  2.863274e+01    2.374868e+02
  2.865548e+01    2.368636e+02
  2.867822e+01    2.363332e+02
  2.870096e+01    2.357917e+02
  2.872370e+01    2.352236e+02
  2.874644e+01    2.346217e+02
  2.876918e+01    2.341082e+02
  2.879191e+01    2.335591e+02
  2.881465e+01    2.329901e+02
  2.883739e+01    2.324232e+02
  2.886013e+01    2.318251e+02
  2.888287e+01    2.312095e+02
  2.890561e+01    2.306409e+02
  2.892835e+01    2.301149e+02
  2.895109e+01    2.295595e+02
  2.897383e+01    2.290234e+02
  2.899657e+01    2.284958e+02
  2.901931e+01    2.279126e+02
  2.904205e+01    2.273838e+02
  2.906479e+01    2.267893e+02
  2.908752e+01    2.261878e+02
  2.911026e+01    2.256961e+02
  2.913300e+01    2.251642e+02
  2.915574e+01    2.245834e+02
  2.917848e+01    2.239908e+02
  2.920122e+01    2.234091e+02
  2.922396e+01    2.228546e+02
  2.924670e+01    2.223271e+02
  2.926944e+01    2.217662e+02
  2.929218e+01    2.211948e+02
  2.931492e+01    2.206667e+02
  2.933766e+01    2.201217e+02
  2.936040e+01    2.195409e+02
  2.938314e+01    2.189808e+02
  2.940587e+01    2.184730e+02
  2.942861e+01    2.179338e+02
  2.945135e+01    2.173834e+02
  2.947409e+01    2.168256e+02
  2.949683e+01    2.163051e+02
  2.951957e+01    2.157726e+02
  2.954231e+01    2.152515e+02
  2.956505e+01    2.147464e+02
  2.958779e+01    2.141654e+02
  2.961053e+01    2.135477e+02
  2.963327e+01    2.130799e+02
  2.965601e+01    2.125123e+02
  2.967875e+01    2.120171e+02
  2.970148e+01    2.114698e+02
  2.972422e+01    2.109198e+02
  2.974696e+01    2.103688e+02
  2.976970e+01    2.098521e+02
  2.979244e+01    2.093596e+02
  2.981518e+01    2.088037e+02
  2.983792e+01    2.082823e+02
  2.986066e+01    2.077527e+02
  2.988340e+01    2.072098e+02
  2.990614e+01    2.066777e+02
  2.992888e+01    2.061571e+02
  2.995162e+01    2.056229e+02
  2.997436e+01    2.051126e+02
  2.999710e+01    2.045535e+02
  3.001983e+01    2.040345e+02
  3.004257e+01    2.035350e+02
  3.006531e+01    2.030675e+02
  3.008805e+01    2.025071e+02
  3.011079e+01    2.019233e+02
  3.013353e+01    2.014103e+02
  3.015627e+01    2.009467e+02
  3.017901e+01    2.004164e+02
  3.020175e+01    1.998852e+02
  3.022449e+01    1.993972e+02
  3.024723e+01    1.988931e+02
  3.026997e+01    1.984013e+02
  3.029271e+01    1.978988e+02
  3.031545e+01    1.973138e+02
  3.033818e+01    1.968560e+02
  3.036092e+01    1.963733e+02
  3.038366e+01    1.957866e+02
  3.040640e+01    1.953464e+02
  3.042914e+01    1.949169e+02
  3.045188e+01    1.943288e+02
  3.047462e+01    1.938366e+02
  3.049736e+01    1.932886e+02
  3.052010e+01    1.928080e+02
  3.054284e+01    1.923327e+02
  3.056558e+01    1.918194e+02
  3.058832e+01    1.913738e+02
  3.061106e+01    1.909431e+02
  3.063379e+01    1.903031e+02
  3.065653e+01    1.897151e+02
  3.067927e+01    1.892166e+02
  3.070201e+01    1.888019e+02
  3.072475e+01    1.882919e+02
  3.074749e+01    1.878094e+02
  3.077023e+01    1.872948e+02
  3.079297e+01    1.866832e+02
  3.081571e+01    1.862254e+02
  3.083845e+01    1.857081e+02
  3.086119e+01    1.853011e+02
  3.088393e+01    1.848075e+02
  3.090667e+01    1.842810e+02
  3.092941e+01    1.836972e+02
  3.095214e+01    1.832921e+02
  3.097488e+01    1.827966e+02
  3.099762e+01    1.823125e+02
  3.102036e+01    1.818756e+02
  3.104310e+01    1.813410e+02
  3.106584e+01    1.807878e+02
  3.108858e+01    1.804214e+02
  3.111132e+01    1.798658e+02
  3.113406e+01    1.794251e+02
  3.115680e+01    1.789253e+02
  3.117954e+01    1.783498e+02
  3.120228e+01    1.779409e+02
  3.122502e+01    1.774587e+02
  3.124775e+01    1.769122e+02
  3.127049e+01    1.765350e+02
  3.129323e+01    1.759639e+02
  3.131597e+01    1.755757e+02
  3.133871e+01    1.751104e+02
  3.136145e+01    1.747725e+02
  3.138419e+01    1.741865e+02
  3.140693e+01    1.737112e+02
  3.142967e+01    1.733214e+02
  3.145241e+01    1.728596e+02
  3.147515e+01    1.723404e+02
  3.149789e+01    1.718244e+02
  3.152063e+01    1.713148e+02
  3.154337e+01    1.709309e+02
  3.156610e+01    1.704114e+02
  3.158884e+01    1.699541e+02
  3.161158e+01    1.694904e+02
  3.163432e+01    1.690340e+02
  3.165706e+01    1.686088e+02
  3.167980e+01    1.680555e+02
  3.170254e+01    1.674220e+02
  3.172528e+01    1.670047e+02
  3.174802e+01    1.665498e+02
  3.177076e+01    1.661161e+02
  3.179350e+01    1.657380e+02
  3.181624e+01    1.652763e+02
  3.183898e+01    1.647782e+02
  3.186171e+01    1.641692e+02
  3.188445e+01    1.637070e+02
  3.190719e+01    1.633343e+02
  3.192993e+01    1.628301e+02
  3.195267e+01    1.623077e+02
  3.197541e+01    1.617768e+02
  3.199815e+01    1.614619e+02
  3.202089e+01    1.609564e+02
  3.204363e+01    1.603400e+02
  3.206637e+01    1.598880e+02
  3.208911e+01    1.593191e+02
  3.211185e+01    1.589022e+02
  3.213459e+01    1.585942e+02
  3.215733e+01    1.580397e+02
  3.218006e+01    1.575147e+02
  3.220280e+01    1.571205e+02
  3.222554e+01    1.566248e+02
  3.224828e+01    1.562006e+02
  3.227102e+01    1.556156e+02
  3.229376e+01    1.552420e+02
  3.231650e+01    1.547998e+02
  3.233924e+01    1.541938e+02
  3.236198e+01    1.536759e+02
  3.238472e+01    1.533634e+02
  3.240746e+01    1.528149e+02
  3.243020e+01    1.521914e+02
  3.245294e+01    1.517410e+02
  3.247568e+01    1.511957e+02
  3.249841e+01    1.507466e+02
  3.252115e+01    1.502956e+02
  3.254389e+01    1.496975e+02
  3.256663e+01    1.490268e+02
  3.258937e+01    1.485627e+02
  3.261211e+01    1.479803e+02
  3.263485e+01    1.473661e+02
  3.265759e+01    1.468927e+02
  3.268033e+01    1.464454e+02
  3.270307e+01    1.459614e+02
  3.272581e+01    1.453128e+02
  3.274855e+01    1.448393e+02
  3.277129e+01    1.441948e+02
  3.279402e+01    1.437168e+02
  3.281676e+01    1.433909e+02
  3.283950e+01    1.428584e+02
  3.286224e+01    1.422297e+02
  3.288498e+01    1.417091e+02
  3.290772e+01    1.411609e+02
  3.293046e+01    1.407284e+02
  3.295320e+01    1.401629e+02
  3.297594e+01    1.396558e+02
  3.299868e+01    1.392144e+02
  3.302142e+01    1.385900e+02
  3.304416e+01    1.381346e+02
  3.306690e+01    1.376322e+02
  3.308964e+01    1.371640e+02
  3.311237e+01    1.368625e+02
  3.313511e+01    1.364677e+02
  3.315785e+01    1.360983e+02
  3.318059e+01    1.355730e+02
  3.320333e+01    1.352267e+02
  3.322607e+01    1.348100e+02
  3.324881e+01    1.344745e+02
  3.327155e+01    1.341279e+02
  3.329429e+01    1.335954e+02
  3.331703e+01    1.332506e+02
  3.333977e+01    1.328115e+02
  3.336251e+01    1.328116e+02
  3.338525e+01    1.321760e+02
  3.340798e+01    1.320507e+02
  3.343072e+01    1.316579e+02
  3.345346e+01    1.310535e+02
  3.347620e+01    1.298421e+02
  3.349894e+01    1.296902e+02
  3.352168e+01    1.296453e+02
  3.354442e+01    1.282174e+02
  3.356716e+01    1.264092e+02
  3.358990e+01    0.000000e+00
  3.361264e+01    0.000000e+00
  3.363538e+01    0.000000e+00
  3.365812e+01    0.000000e+00
